time	sig 0	sig 1
(sec)	(mV)	(mV)
  0.000	 -0.275	 -0.210
  0.004	 -0.295	 -0.200
  0.008	 -0.310	 -0.220
  0.012	 -0.315	 -0.225
  0.016	 -0.300	 -0.215
  0.020	 -0.320	 -0.220
  0.024	 -0.300	 -0.210
  0.028	 -0.300	 -0.195
  0.032	 -0.290	 -0.190
  0.036	 -0.280	 -0.205
  0.040	 -0.295	 -0.190
  0.044	 -0.290	 -0.210
  0.048	 -0.305	 -0.200
  0.052	 -0.315	 -0.200
  0.056	 -0.320	 -0.215
  0.060	 -0.295	 -0.215
  0.064	 -0.295	 -0.215
  0.068	 -0.305	 -0.195
  0.072	 -0.275	 -0.205
  0.076	 -0.250	 -0.200
  0.080	 -0.230	 -0.195
  0.084	 -0.190	 -0.200
  0.088	 -0.175	 -0.185
  0.092	 -0.165	 -0.160
  0.096	 -0.170	 -0.120
  0.100	 -0.140	 -0.130
  0.104	 -0.145	 -0.130
  0.108	 -0.120	 -0.125
  0.112	 -0.120	 -0.145
  0.116	 -0.110	 -0.155
  0.120	 -0.115	 -0.155
  0.124	 -0.090	 -0.155
  0.128	 -0.100	 -0.230
  0.132	 -0.130	 -0.280
  0.136	 -0.160	 -0.290
  0.140	 -0.215	 -0.295
  0.144	 -0.230	 -0.315
  0.148	 -0.285	 -0.285
  0.152	 -0.280	 -0.240
  0.156	 -0.320	 -0.270
  0.160	 -0.310	 -0.265
  0.164	 -0.310	 -0.260
  0.168	 -0.320	 -0.270
  0.172	 -0.340	 -0.270
  0.176	 -0.335	 -0.300
  0.180	 -0.340	 -0.310
  0.184	 -0.360	 -0.285
  0.188	 -0.310	 -0.290
  0.192	 -0.260	 -0.245
  0.196	 -0.180	 -0.200
  0.200	  0.030	 -0.170
  0.204	  0.350	 -0.170
  0.208	  0.695	 -0.195
  0.212	  0.860	 -0.230
  0.216	  1.030	 -0.490
  0.220	  0.995	 -0.960
  0.224	  0.420	 -1.465
  0.228	 -0.580	 -1.825
  0.232	 -1.345	 -2.080
  0.236	 -1.695	 -2.280
  0.240	 -1.770	 -2.615
  0.244	 -1.650	 -2.625
  0.248	 -1.375	 -2.355
  0.252	 -1.000	 -1.995
  0.256	 -0.740	 -1.635
  0.260	 -0.595	 -1.240
  0.264	 -0.495	 -0.920
  0.268	 -0.445	 -0.650
  0.272	 -0.440	 -0.470
  0.276	 -0.435	 -0.380
  0.280	 -0.440	 -0.320
  0.284	 -0.430	 -0.310
  0.288	 -0.425	 -0.320
  0.292	 -0.410	 -0.320
  0.296	 -0.390	 -0.280
  0.300	 -0.415	 -0.250
  0.304	 -0.425	 -0.250
  0.308	 -0.405	 -0.260
  0.312	 -0.445	 -0.270
  0.316	 -0.445	 -0.275
  0.320	 -0.455	 -0.270
  0.324	 -0.460	 -0.260
  0.328	 -0.465	 -0.265
  0.332	 -0.475	 -0.270
  0.336	 -0.455	 -0.240
  0.340	 -0.430	 -0.235
  0.344	 -0.450	 -0.250
  0.348	 -0.470	 -0.255
  0.352	 -0.450	 -0.250
  0.356	 -0.460	 -0.210
  0.360	 -0.500	 -0.210
  0.364	 -0.500	 -0.255
  0.368	 -0.510	 -0.230
  0.372	 -0.505	 -0.240
  0.376	 -0.520	 -0.265
  0.380	 -0.500	 -0.275
  0.384	 -0.520	 -0.240
  0.388	 -0.525	 -0.255
  0.392	 -0.530	 -0.260
  0.396	 -0.560	 -0.285
  0.400	 -0.610	 -0.280
  0.404	 -0.610	 -0.290
  0.408	 -0.645	 -0.275
  0.412	 -0.655	 -0.325
  0.416	 -0.660	 -0.315
  0.420	 -0.665	 -0.345
  0.424	 -0.685	 -0.340
  0.428	 -0.695	 -0.350
  0.432	 -0.700	 -0.365
  0.436	 -0.720	 -0.380
  0.440	 -0.780	 -0.400
  0.444	 -0.800	 -0.400
  0.448	 -0.800	 -0.445
  0.452	 -0.810	 -0.420
  0.456	 -0.830	 -0.460
  0.460	 -0.840	 -0.480
  0.464	 -0.845	 -0.485
  0.468	 -0.865	 -0.470
  0.472	 -0.870	 -0.485
  0.476	 -0.870	 -0.485
  0.480	 -0.875	 -0.525
  0.484	 -0.885	 -0.550
  0.488	 -0.910	 -0.530
  0.492	 -0.900	 -0.555
  0.496	 -0.900	 -0.550
  0.500	 -0.895	 -0.560
  0.504	 -0.840	 -0.555
  0.508	 -0.790	 -0.555
  0.512	 -0.730	 -0.555
  0.516	 -0.675	 -0.545
  0.520	 -0.640	 -0.520
  0.524	 -0.590	 -0.505
  0.528	 -0.560	 -0.530
  0.532	 -0.480	 -0.490
  0.536	 -0.430	 -0.465
  0.540	 -0.400	 -0.450
  0.544	 -0.355	 -0.410
  0.548	 -0.310	 -0.390
  0.552	 -0.290	 -0.375
  0.556	 -0.245	 -0.335
  0.560	 -0.220	 -0.300
  0.564	 -0.210	 -0.280
  0.568	 -0.225	 -0.285
  0.572	 -0.220	 -0.280
  0.576	 -0.205	 -0.285
  0.580	 -0.230	 -0.280
  0.584	 -0.250	 -0.300
  0.588	 -0.240	 -0.300
  0.592	 -0.235	 -0.310
  0.596	 -0.240	 -0.315
  0.600	 -0.240	 -0.290
  0.604	 -0.220	 -0.280
  0.608	 -0.220	 -0.300
  0.612	 -0.215	 -0.320
  0.616	 -0.225	 -0.295
  0.620	 -0.260	 -0.295
  0.624	 -0.260	 -0.270
  0.628	 -0.270	 -0.305
  0.632	 -0.295	 -0.305
  0.636	 -0.280	 -0.290
  0.640	 -0.285	 -0.305
  0.644	 -0.275	 -0.280
  0.648	 -0.270	 -0.310
  0.652	 -0.255	 -0.310
  0.656	 -0.265	 -0.320
  0.660	 -0.275	 -0.320
  0.664	 -0.300	 -0.320
  0.668	 -0.315	 -0.305
  0.672	 -0.315	 -0.320
  0.676	 -0.300	 -0.290
  0.680	 -0.305	 -0.310
  0.684	 -0.295	 -0.300
  0.688	 -0.290	 -0.315
  0.692	 -0.305	 -0.320
  0.696	 -0.280	 -0.310
  0.700	 -0.305	 -0.320
  0.704	 -0.315	 -0.320
  0.708	 -0.305	 -0.305
  0.712	 -0.305	 -0.295
  0.716	 -0.295	 -0.305
  0.720	 -0.295	 -0.325
  0.724	 -0.295	 -0.330
  0.728	 -0.290	 -0.330
  0.732	 -0.270	 -0.320
  0.736	 -0.250	 -0.330
  0.740	 -0.270	 -0.330
  0.744	 -0.255	 -0.310
  0.748	 -0.250	 -0.300
  0.752	 -0.300	 -0.240
  0.756	 -0.230	 -0.200
  0.760	  0.005	 -0.255
  0.764	  0.400	 -0.355
  0.768	  0.740	 -0.510
  0.772	  1.035	 -0.675
  0.776	  0.910	 -0.600
  0.780	  0.115	 -0.640
  0.784	 -0.875	 -0.940
  0.788	 -1.460	 -1.330
  0.792	 -1.715	 -1.670
  0.796	 -1.725	 -1.870
  0.800	 -1.590	 -1.905
  0.804	 -1.365	 -1.845
  0.808	 -1.005	 -1.690
  0.812	 -0.640	 -1.430
  0.816	 -0.350	 -1.160
  0.820	 -0.165	 -0.870
  0.824	 -0.130	 -0.660
  0.828	 -0.115	 -0.480
  0.832	 -0.145	 -0.330
  0.836	 -0.145	 -0.240
  0.840	 -0.165	 -0.210
  0.844	 -0.190	 -0.190
  0.848	 -0.195	 -0.190
  0.852	 -0.200	 -0.200
  0.856	 -0.200	 -0.215
  0.860	 -0.175	 -0.205
  0.864	 -0.190	 -0.210
  0.868	 -0.210	 -0.230
  0.872	 -0.230	 -0.255
  0.876	 -0.230	 -0.290
  0.880	 -0.270	 -0.320
  0.884	 -0.290	 -0.315
  0.888	 -0.330	 -0.335
  0.892	 -0.325	 -0.345
  0.896	 -0.330	 -0.355
  0.900	 -0.355	 -0.350
  0.904	 -0.360	 -0.330
  0.908	 -0.345	 -0.350
  0.912	 -0.320	 -0.375
  0.916	 -0.330	 -0.370
  0.920	 -0.330	 -0.385
  0.924	 -0.360	 -0.390
  0.928	 -0.365	 -0.410
  0.932	 -0.400	 -0.390
  0.936	 -0.420	 -0.400
  0.940	 -0.430	 -0.410
  0.944	 -0.450	 -0.415
  0.948	 -0.470	 -0.420
  0.952	 -0.455	 -0.450
  0.956	 -0.470	 -0.460
  0.960	 -0.470	 -0.450
  0.964	 -0.505	 -0.460
  0.968	 -0.520	 -0.460
  0.972	 -0.570	 -0.480
  0.976	 -0.595	 -0.490
  0.980	 -0.610	 -0.500
  0.984	 -0.630	 -0.505
  0.988	 -0.640	 -0.520
  0.992	 -0.650	 -0.535
  0.996	 -0.650	 -0.565
  1.000	 -0.640	 -0.550
  1.004	 -0.640	 -0.565
  1.008	 -0.635	 -0.570
  1.012	 -0.655	 -0.605
  1.016	 -0.665	 -0.575
  1.020	 -0.670	 -0.600
  1.024	 -0.655	 -0.625
  1.028	 -0.625	 -0.620
  1.032	 -0.615	 -0.650
  1.036	 -0.560	 -0.640
  1.040	 -0.500	 -0.665
  1.044	 -0.455	 -0.640
  1.048	 -0.395	 -0.645
  1.052	 -0.340	 -0.645
  1.056	 -0.295	 -0.635
  1.060	 -0.240	 -0.600
  1.064	 -0.220	 -0.595
  1.068	 -0.195	 -0.570
  1.072	 -0.145	 -0.540
  1.076	 -0.110	 -0.510
  1.080	 -0.070	 -0.465
  1.084	 -0.050	 -0.400
  1.088	 -0.030	 -0.370
  1.092	 -0.030	 -0.345
  1.096	 -0.030	 -0.310
  1.100	 -0.025	 -0.290
  1.104	 -0.050	 -0.285
  1.108	 -0.070	 -0.255
  1.112	 -0.080	 -0.270
  1.116	 -0.080	 -0.255
  1.120	 -0.100	 -0.195
  1.124	 -0.110	 -0.190
  1.128	 -0.105	 -0.230
  1.132	 -0.100	 -0.200
  1.136	 -0.100	 -0.215
  1.140	 -0.115	 -0.230
  1.144	 -0.125	 -0.185
  1.148	 -0.130	 -0.175
  1.152	 -0.150	 -0.175
  1.156	 -0.145	 -0.190
  1.160	 -0.160	 -0.180
  1.164	 -0.160	 -0.180
  1.168	 -0.150	 -0.200
  1.172	 -0.135	 -0.220
  1.176	 -0.150	 -0.215
  1.180	 -0.145	 -0.195
  1.184	 -0.170	 -0.225
  1.188	 -0.170	 -0.225
  1.192	 -0.190	 -0.215
  1.196	 -0.180	 -0.230
  1.200	 -0.195	 -0.245
  1.204	 -0.210	 -0.230
  1.208	 -0.210	 -0.235
  1.212	 -0.210	 -0.245
  1.216	 -0.195	 -0.230
  1.220	 -0.170	 -0.220
  1.224	 -0.150	 -0.220
  1.228	 -0.165	 -0.210
  1.232	 -0.195	 -0.205
  1.236	 -0.195	 -0.215
  1.240	 -0.220	 -0.230
  1.244	 -0.210	 -0.255
  1.248	 -0.240	 -0.260
  1.252	 -0.225	 -0.270
  1.256	 -0.205	 -0.250
  1.260	 -0.190	 -0.270
  1.264	 -0.145	 -0.250
  1.268	 -0.115	 -0.240
  1.272	 -0.070	 -0.210
  1.276	  0.005	 -0.210
  1.280	  0.060	 -0.185
  1.284	  0.090	 -0.160
  1.288	  0.110	 -0.110
  1.292	  0.140	 -0.075
  1.296	  0.120	 -0.100
  1.300	  0.060	 -0.115
  1.304	  0.060	 -0.155
  1.308	  0.035	 -0.180
  1.312	  0.010	 -0.225
  1.316	 -0.040	 -0.220
  1.320	 -0.095	 -0.215
  1.324	 -0.130	 -0.200
  1.328	 -0.190	 -0.220
  1.332	 -0.240	 -0.215
  1.336	 -0.265	 -0.225
  1.340	 -0.290	 -0.255
  1.344	 -0.270	 -0.275
  1.348	 -0.270	 -0.295
  1.352	 -0.265	 -0.315
  1.356	 -0.255	 -0.310
  1.360	 -0.255	 -0.340
  1.364	 -0.245	 -0.320
  1.368	 -0.240	 -0.305
  1.372	 -0.240	 -0.330
  1.376	 -0.200	 -0.305
  1.380	 -0.165	 -0.295
  1.384	 -0.140	 -0.240
  1.388	  0.010	 -0.215
  1.392	  0.295	 -0.220
  1.396	  0.660	 -0.250
  1.400	  0.870	 -0.305
  1.404	  1.045	 -0.460
  1.408	  1.105	 -0.890
  1.412	  0.715	 -1.385
  1.416	 -0.240	 -1.785
  1.420	 -1.110	 -2.085
  1.424	 -1.545	 -2.265
  1.428	 -1.645	 -2.500
  1.432	 -1.585	 -2.715
  1.436	 -1.345	 -2.535
  1.440	 -1.000	 -2.230
  1.444	 -0.715	 -1.850
  1.448	 -0.510	 -1.450
  1.452	 -0.410	 -1.135
  1.456	 -0.360	 -0.825
  1.460	 -0.330	 -0.580
  1.464	 -0.300	 -0.440
  1.468	 -0.330	 -0.340
  1.472	 -0.300	 -0.310
  1.476	 -0.305	 -0.280
  1.480	 -0.300	 -0.320
  1.484	 -0.285	 -0.300
  1.488	 -0.280	 -0.305
  1.492	 -0.280	 -0.270
  1.496	 -0.260	 -0.255
  1.500	 -0.255	 -0.255
  1.504	 -0.255	 -0.270
  1.508	 -0.300	 -0.245
  1.512	 -0.320	 -0.240
  1.516	 -0.330	 -0.225
  1.520	 -0.320	 -0.225
  1.524	 -0.305	 -0.210
  1.528	 -0.335	 -0.220
  1.532	 -0.300	 -0.230
  1.536	 -0.295	 -0.200
  1.540	 -0.300	 -0.175
  1.544	 -0.280	 -0.170
  1.548	 -0.310	 -0.190
  1.552	 -0.335	 -0.200
  1.556	 -0.360	 -0.175
  1.560	 -0.370	 -0.200
  1.564	 -0.395	 -0.170
  1.568	 -0.415	 -0.145
  1.572	 -0.420	 -0.195
  1.576	 -0.410	 -0.215
  1.580	 -0.410	 -0.190
  1.584	 -0.440	 -0.185
  1.588	 -0.410	 -0.190
  1.592	 -0.430	 -0.205
  1.596	 -0.475	 -0.195
  1.600	 -0.495	 -0.210
  1.604	 -0.520	 -0.220
  1.608	 -0.530	 -0.215
  1.612	 -0.540	 -0.235
  1.616	 -0.565	 -0.235
  1.620	 -0.570	 -0.265
  1.624	 -0.585	 -0.265
  1.628	 -0.590	 -0.270
  1.632	 -0.615	 -0.275
  1.636	 -0.640	 -0.290
  1.640	 -0.675	 -0.310
  1.644	 -0.700	 -0.315
  1.648	 -0.720	 -0.315
  1.652	 -0.715	 -0.340
  1.656	 -0.700	 -0.320
  1.660	 -0.745	 -0.360
  1.664	 -0.710	 -0.360
  1.668	 -0.705	 -0.340
  1.672	 -0.705	 -0.320
  1.676	 -0.690	 -0.330
  1.680	 -0.680	 -0.340
  1.684	 -0.690	 -0.365
  1.688	 -0.660	 -0.385
  1.692	 -0.655	 -0.400
  1.696	 -0.610	 -0.415
  1.700	 -0.550	 -0.385
  1.704	 -0.490	 -0.375
  1.708	 -0.405	 -0.360
  1.712	 -0.350	 -0.365
  1.716	 -0.300	 -0.345
  1.720	 -0.230	 -0.335
  1.724	 -0.195	 -0.285
  1.728	 -0.140	 -0.305
  1.732	 -0.100	 -0.295
  1.736	 -0.090	 -0.280
  1.740	 -0.050	 -0.255
  1.744	 -0.030	 -0.220
  1.748	  0.005	 -0.190
  1.752	  0.015	 -0.180
  1.756	  0.055	 -0.180
  1.760	  0.065	 -0.150
  1.764	  0.060	 -0.165
  1.768	  0.080	 -0.130
  1.772	  0.060	 -0.115
  1.776	  0.035	 -0.120
  1.780	  0.045	 -0.130
  1.784	  0.030	 -0.145
  1.788	  0.050	 -0.145
  1.792	  0.035	 -0.120
  1.796	  0.045	 -0.120
  1.800	  0.060	 -0.120
  1.804	  0.090	 -0.125
  1.808	  0.085	 -0.110
  1.812	  0.080	 -0.115
  1.816	  0.055	 -0.110
  1.820	  0.050	 -0.105
  1.824	  0.025	 -0.090
  1.828	  0.020	 -0.140
  1.832	  0.020	 -0.130
  1.836	  0.035	 -0.135
  1.840	  0.035	 -0.125
  1.844	  0.025	 -0.135
  1.848	  0.045	 -0.125
  1.852	  0.020	 -0.155
  1.856	  0.035	 -0.165
  1.860	  0.045	 -0.160
  1.864	  0.010	 -0.160
  1.868	 -0.015	 -0.140
  1.872	 -0.020	 -0.135
  1.876	 -0.015	 -0.155
  1.880	 -0.005	 -0.150
  1.884	 -0.010	 -0.120
  1.888	  0.010	 -0.150
  1.892	  0.040	 -0.130
  1.896	  0.030	 -0.150
  1.900	  0.035	 -0.135
  1.904	  0.025	 -0.155
  1.908	  0.015	 -0.155
  1.912	  0.025	 -0.150
  1.916	  0.030	 -0.170
  1.920	  0.015	 -0.175
  1.924	  0.000	 -0.175
  1.928	 -0.010	 -0.165
  1.932	  0.015	 -0.180
  1.936	  0.030	 -0.175
  1.940	  0.035	 -0.175
  1.944	  0.015	 -0.185
  1.948	  0.005	 -0.200
  1.952	  0.005	 -0.190
  1.956	 -0.020	 -0.160
  1.960	 -0.010	 -0.170
  1.964	 -0.015	 -0.165
  1.968	  0.000	 -0.180
  1.972	 -0.005	 -0.185
  1.976	  0.005	 -0.175
  1.980	  0.010	 -0.165
  1.984	  0.020	 -0.160
  1.988	  0.010	 -0.180
  1.992	  0.000	 -0.175
  1.996	 -0.005	 -0.170
  2.000	  0.015	 -0.135
  2.004	  0.000	 -0.170
  2.008	  0.020	 -0.185
  2.012	  0.005	 -0.160
  2.016	  0.025	 -0.165
  2.020	  0.035	 -0.180
  2.024	  0.045	 -0.160
  2.028	  0.060	 -0.145
  2.032	  0.060	 -0.170
  2.036	  0.045	 -0.180
  2.040	  0.010	 -0.190
  2.044	  0.020	 -0.175
  2.048	  0.005	 -0.160
  2.052	  0.015	 -0.155
  2.056	  0.020	 -0.170
  2.060	  0.010	 -0.200
  2.064	  0.020	 -0.170
  2.068	  0.050	 -0.190
  2.072	  0.045	 -0.175
  2.076	  0.025	 -0.170
  2.080	  0.030	 -0.185
  2.084	  0.025	 -0.170
  2.088	  0.020	 -0.160
  2.092	  0.015	 -0.180
  2.096	  0.020	 -0.205
  2.100	  0.040	 -0.160
  2.104	  0.060	 -0.170
  2.108	  0.045	 -0.180
  2.112	  0.035	 -0.155
  2.116	  0.025	 -0.170
  2.120	  0.025	 -0.165
  2.124	  0.020	 -0.175
  2.128	  0.020	 -0.175
  2.132	  0.010	 -0.195
  2.136	 -0.010	 -0.210
  2.140	  0.005	 -0.195
  2.144	  0.015	 -0.200
  2.148	  0.035	 -0.190
  2.152	  0.035	 -0.190
  2.156	  0.005	 -0.190
  2.160	  0.030	 -0.200
  2.164	  0.060	 -0.210
  2.168	  0.040	 -0.185
  2.172	  0.025	 -0.200
  2.176	  0.045	 -0.190
  2.180	  0.020	 -0.190
  2.184	  0.015	 -0.225
  2.188	  0.015	 -0.205
  2.192	  0.035	 -0.190
  2.196	  0.025	 -0.205
  2.200	  0.055	 -0.225
  2.204	  0.095	 -0.195
  2.208	  0.120	 -0.170
  2.212	  0.155	 -0.170
  2.216	  0.190	 -0.150
  2.220	  0.175	 -0.095
  2.224	  0.170	 -0.090
  2.228	  0.150	 -0.105
  2.232	  0.170	 -0.095
  2.236	  0.205	 -0.115
  2.240	  0.230	 -0.135
  2.244	  0.245	 -0.145
  2.248	  0.255	 -0.130
  2.252	  0.315	 -0.160
  2.256	  0.260	 -0.205
  2.260	  0.205	 -0.195
  2.264	  0.180	 -0.195
  2.268	  0.130	 -0.230
  2.272	  0.060	 -0.260
  2.276	  0.030	 -0.235
  2.280	  0.020	 -0.220
  2.284	  0.000	 -0.215
  2.288	 -0.035	 -0.225
  2.292	 -0.045	 -0.215
  2.296	 -0.025	 -0.235
  2.300	  0.000	 -0.240
  2.304	  0.005	 -0.225
  2.308	  0.020	 -0.195
  2.312	  0.040	 -0.200
  2.316	  0.120	 -0.205
  2.320	  0.170	 -0.135
  2.324	  0.340	 -0.075
  2.328	  0.635	 -0.030
  2.332	  1.025	 -0.065
  2.336	  1.260	 -0.110
  2.340	  1.495	 -0.210
  2.344	  1.530	 -0.415
  2.348	  1.050	 -0.765
  2.352	  0.120	 -1.095
  2.356	 -0.730	 -1.420
  2.360	 -1.215	 -1.610
  2.364	 -1.275	 -1.790
  2.368	 -1.185	 -1.900
  2.372	 -1.070	 -1.860
  2.376	 -0.850	 -1.705
  2.380	 -0.560	 -1.450
  2.384	 -0.315	 -1.185
  2.388	 -0.165	 -0.965
  2.392	 -0.120	 -0.710
  2.396	 -0.090	 -0.480
  2.400	 -0.070	 -0.335
  2.404	 -0.065	 -0.265
  2.408	 -0.060	 -0.255
  2.412	 -0.065	 -0.225
  2.416	 -0.040	 -0.215
  2.420	 -0.025	 -0.185
  2.424	 -0.020	 -0.170
  2.428	 -0.020	 -0.170
  2.432	 -0.015	 -0.150
  2.436	 -0.020	 -0.140
  2.440	 -0.015	 -0.105
  2.444	 -0.040	 -0.125
  2.448	 -0.045	 -0.115
  2.452	 -0.040	 -0.125
  2.456	 -0.040	 -0.140
  2.460	  0.000	 -0.140
  2.464	  0.005	 -0.115
  2.468	 -0.005	 -0.120
  2.472	  0.000	 -0.125
  2.476	 -0.010	 -0.125
  2.480	 -0.030	 -0.110
  2.484	 -0.065	 -0.105
  2.488	 -0.080	 -0.115
  2.492	 -0.110	 -0.110
  2.496	 -0.120	 -0.140
  2.500	 -0.090	 -0.115
  2.504	 -0.085	 -0.115
  2.508	 -0.090	 -0.090
  2.512	 -0.125	 -0.110
  2.516	 -0.125	 -0.120
  2.520	 -0.125	 -0.105
  2.524	 -0.110	 -0.090
  2.528	 -0.140	 -0.110
  2.532	 -0.200	 -0.150
  2.536	 -0.245	 -0.140
  2.540	 -0.260	 -0.125
  2.544	 -0.275	 -0.140
  2.548	 -0.305	 -0.170
  2.552	 -0.305	 -0.145
  2.556	 -0.315	 -0.115
  2.560	 -0.295	 -0.150
  2.564	 -0.310	 -0.135
  2.568	 -0.315	 -0.160
  2.572	 -0.355	 -0.160
  2.576	 -0.395	 -0.160
  2.580	 -0.415	 -0.170
  2.584	 -0.425	 -0.190
  2.588	 -0.435	 -0.195
  2.592	 -0.445	 -0.215
  2.596	 -0.465	 -0.220
  2.600	 -0.435	 -0.220
  2.604	 -0.430	 -0.215
  2.608	 -0.425	 -0.235
  2.612	 -0.430	 -0.245
  2.616	 -0.435	 -0.270
  2.620	 -0.400	 -0.275
  2.624	 -0.340	 -0.285
  2.628	 -0.330	 -0.275
  2.632	 -0.275	 -0.270
  2.636	 -0.250	 -0.240
  2.640	 -0.215	 -0.245
  2.644	 -0.145	 -0.210
  2.648	 -0.075	 -0.205
  2.652	 -0.025	 -0.200
  2.656	  0.000	 -0.160
  2.660	  0.015	 -0.155
  2.664	  0.005	 -0.135
  2.668	  0.000	 -0.080
  2.672	  0.000	 -0.040
  2.676	  0.050	  0.005
  2.680	  0.070	  0.015
  2.684	  0.095	  0.015
  2.688	  0.125	  0.010
  2.692	  0.105	  0.030
  2.696	  0.110	  0.005
  2.700	  0.100	  0.015
  2.704	  0.075	  0.025
  2.708	  0.075	  0.040
  2.712	  0.090	  0.040
  2.716	  0.100	  0.015
  2.720	  0.105	  0.020
  2.724	  0.095	  0.050
  2.728	  0.095	  0.030
  2.732	  0.105	  0.035
  2.736	  0.110	  0.005
  2.740	  0.105	  0.025
  2.744	  0.110	  0.025
  2.748	  0.105	  0.035
  2.752	  0.085	  0.040
  2.756	  0.060	  0.040
  2.760	  0.075	  0.025
  2.764	  0.065	  0.030
  2.768	  0.065	  0.040
  2.772	  0.070	  0.035
  2.776	  0.090	  0.040
  2.780	  0.100	  0.035
  2.784	  0.095	  0.045
  2.788	  0.115	  0.050
  2.792	  0.090	  0.040
  2.796	  0.055	  0.050
  2.800	  0.035	  0.055
  2.804	  0.050	  0.050
  2.808	  0.045	  0.050
  2.812	  0.050	  0.060
  2.816	  0.055	  0.070
  2.820	  0.050	  0.035
  2.824	  0.045	  0.060
  2.828	  0.050	  0.080
  2.832	  0.050	  0.060
  2.836	  0.045	  0.045
  2.840	  0.035	  0.075
  2.844	  0.050	  0.080
  2.848	  0.015	  0.070
  2.852	  0.015	  0.095
  2.856	  0.040	  0.090
  2.860	  0.090	  0.095
  2.864	  0.150	  0.120
  2.868	  0.170	  0.135
  2.872	  0.235	  0.215
  2.876	  0.435	  0.220
  2.880	  0.775	  0.220
  2.884	  1.125	  0.155
  2.888	  1.325	  0.075
  2.892	  1.335	 -0.025
  2.896	  0.940	 -0.265
  2.900	  0.000	 -0.600
  2.904	 -0.920	 -0.950
  2.908	 -1.360	 -1.280
  2.912	 -1.430	 -1.505
  2.916	 -1.325	 -1.695
  2.920	 -1.145	 -1.725
  2.924	 -0.845	 -1.555
  2.928	 -0.555	 -1.235
  2.932	 -0.325	 -0.925
  2.936	 -0.190	 -0.615
  2.940	 -0.115	 -0.385
  2.944	 -0.040	 -0.180
  2.948	 -0.025	 -0.010
  2.952	 -0.010	  0.065
  2.956	 -0.005	  0.135
  2.960	  0.000	  0.135
  2.964	 -0.005	  0.155
  2.968	  0.010	  0.175
  2.972	 -0.020	  0.155
  2.976	 -0.010	  0.180
  2.980	 -0.025	  0.200
  2.984	 -0.020	  0.180
  2.988	 -0.025	  0.195
  2.992	 -0.020	  0.230
  2.996	 -0.020	  0.215
  3.000	 -0.025	  0.230
  3.004	 -0.030	  0.260
  3.008	 -0.030	  0.240
  3.012	 -0.045	  0.250
  3.016	 -0.050	  0.245
  3.020	 -0.085	  0.250
  3.024	 -0.075	  0.265
  3.028	 -0.060	  0.290
  3.032	 -0.090	  0.265
  3.036	 -0.100	  0.270
  3.040	 -0.100	  0.265
  3.044	 -0.100	  0.275
  3.048	 -0.115	  0.280
  3.052	 -0.105	  0.265
  3.056	 -0.115	  0.275
  3.060	 -0.160	  0.270
  3.064	 -0.190	  0.260
  3.068	 -0.200	  0.295
  3.072	 -0.250	  0.285
  3.076	 -0.245	  0.285
  3.080	 -0.280	  0.280
  3.084	 -0.265	  0.285
  3.088	 -0.285	  0.270
  3.092	 -0.305	  0.265
  3.096	 -0.350	  0.245
  3.100	 -0.385	  0.255
  3.104	 -0.405	  0.240
  3.108	 -0.425	  0.220
  3.112	 -0.475	  0.215
  3.116	 -0.470	  0.220
  3.120	 -0.475	  0.235
  3.124	 -0.485	  0.195
  3.128	 -0.480	  0.180
  3.132	 -0.510	  0.180
  3.136	 -0.515	  0.195
  3.140	 -0.495	  0.175
  3.144	 -0.505	  0.160
  3.148	 -0.500	  0.155
  3.152	 -0.455	  0.145
  3.156	 -0.425	  0.150
  3.160	 -0.385	  0.140
  3.164	 -0.330	  0.145
  3.168	 -0.300	  0.125
  3.172	 -0.240	  0.180
  3.176	 -0.200	  0.195
  3.180	 -0.115	  0.210
  3.184	 -0.080	  0.205
  3.188	 -0.075	  0.215
  3.192	 -0.045	  0.225
  3.196	 -0.035	  0.275
  3.200	 -0.010	  0.290
  3.204	 -0.020	  0.305
  3.208	  0.010	  0.295
  3.212	  0.025	  0.315
  3.216	  0.030	  0.350
  3.220	  0.015	  0.395
  3.224	 -0.005	  0.390
  3.228	 -0.005	  0.410
  3.232	 -0.040	  0.405
  3.236	 -0.060	  0.410
  3.240	 -0.095	  0.405
  3.244	 -0.080	  0.415
  3.248	 -0.090	  0.420
  3.252	 -0.100	  0.425
  3.256	 -0.085	  0.415
  3.260	 -0.105	  0.395
  3.264	 -0.115	  0.405
  3.268	 -0.120	  0.410
  3.272	 -0.120	  0.400
  3.276	 -0.150	  0.420
  3.280	 -0.160	  0.405
  3.284	 -0.170	  0.425
  3.288	 -0.180	  0.415
  3.292	 -0.170	  0.405
  3.296	 -0.185	  0.415
  3.300	 -0.190	  0.420
  3.304	 -0.180	  0.385
  3.308	 -0.185	  0.410
  3.312	 -0.215	  0.410
  3.316	 -0.215	  0.425
  3.320	 -0.220	  0.390
  3.324	 -0.235	  0.390
  3.328	 -0.225	  0.395
  3.332	 -0.235	  0.410
  3.336	 -0.275	  0.400
  3.340	 -0.260	  0.400
  3.344	 -0.240	  0.405
  3.348	 -0.250	  0.395
  3.352	 -0.240	  0.385
  3.356	 -0.225	  0.415
  3.360	 -0.265	  0.415
  3.364	 -0.275	  0.415
  3.368	 -0.275	  0.420
  3.372	 -0.230	  0.410
  3.376	 -0.195	  0.440
  3.380	 -0.150	  0.415
  3.384	 -0.070	  0.465
  3.388	 -0.020	  0.490
  3.392	  0.015	  0.525
  3.396	  0.025	  0.560
  3.400	  0.025	  0.555
  3.404	  0.025	  0.565
  3.408	 -0.020	  0.525
  3.412	 -0.075	  0.530
  3.416	 -0.120	  0.515
  3.420	 -0.140	  0.480
  3.424	 -0.170	  0.495
  3.428	 -0.230	  0.515
  3.432	 -0.275	  0.500
  3.436	 -0.335	  0.505
  3.440	 -0.375	  0.520
  3.444	 -0.380	  0.495
  3.448	 -0.405	  0.440
  3.452	 -0.430	  0.425
  3.456	 -0.445	  0.395
  3.460	 -0.425	  0.390
  3.464	 -0.435	  0.405
  3.468	 -0.390	  0.415
  3.472	 -0.290	  0.430
  3.476	 -0.225	  0.465
  3.480	 -0.095	  0.520
  3.484	  0.170	  0.535
  3.488	  0.480	  0.510
  3.492	  0.685	  0.465
  3.496	  0.780	  0.360
  3.500	  0.860	 -0.020
  3.504	  0.590	 -0.500
  3.508	 -0.260	 -0.875
  3.512	 -1.205	 -1.215
  3.516	 -1.720	 -1.455
  3.520	 -1.885	 -1.670
  3.524	 -1.785	 -1.815
  3.528	 -1.575	 -1.815
  3.532	 -1.295	 -1.565
  3.536	 -1.020	 -1.190
  3.540	 -0.825	 -0.810
  3.544	 -0.705	 -0.435
  3.548	 -0.645	 -0.120
  3.552	 -0.610	  0.115
  3.556	 -0.590	  0.290
  3.560	 -0.555	  0.395
  3.564	 -0.545	  0.445
  3.568	 -0.540	  0.460
  3.572	 -0.545	  0.480
  3.576	 -0.540	  0.500
  3.580	 -0.540	  0.485
  3.584	 -0.555	  0.510
  3.588	 -0.550	  0.500
  3.592	 -0.570	  0.510
  3.596	 -0.580	  0.535
  3.600	 -0.580	  0.525
  3.604	 -0.600	  0.530
  3.608	 -0.585	  0.535
  3.612	 -0.580	  0.540
  3.616	 -0.600	  0.550
  3.620	 -0.620	  0.555
  3.624	 -0.650	  0.540
  3.628	 -0.640	  0.545
  3.632	 -0.665	  0.545
  3.636	 -0.670	  0.540
  3.640	 -0.665	  0.550
  3.644	 -0.695	  0.535
  3.648	 -0.715	  0.560
  3.652	 -0.700	  0.560
  3.656	 -0.705	  0.580
  3.660	 -0.700	  0.565
  3.664	 -0.730	  0.570
  3.668	 -0.725	  0.575
  3.672	 -0.755	  0.530
  3.676	 -0.790	  0.535
  3.680	 -0.830	  0.530
  3.684	 -0.835	  0.530
  3.688	 -0.880	  0.550
  3.692	 -0.890	  0.550
  3.696	 -0.890	  0.530
  3.700	 -0.910	  0.495
  3.704	 -0.915	  0.500
  3.708	 -0.945	  0.500
  3.712	 -0.990	  0.505
  3.716	 -1.040	  0.520
  3.720	 -1.055	  0.490
  3.724	 -1.055	  0.485
  3.728	 -1.065	  0.465
  3.732	 -1.085	  0.485
  3.736	 -1.110	  0.465
  3.740	 -1.125	  0.455
  3.744	 -1.115	  0.440
  3.748	 -1.145	  0.455
  3.752	 -1.160	  0.445
  3.756	 -1.170	  0.440
  3.760	 -1.190	  0.430
  3.764	 -1.170	  0.415
  3.768	 -1.185	  0.410
  3.772	 -1.180	  0.395
  3.776	 -1.155	  0.405
  3.780	 -1.145	  0.395
  3.784	 -1.090	  0.390
  3.788	 -1.035	  0.390
  3.792	 -0.950	  0.405
  3.796	 -0.895	  0.400
  3.800	 -0.845	  0.395
  3.804	 -0.825	  0.395
  3.808	 -0.770	  0.420
  3.812	 -0.725	  0.430
  3.816	 -0.660	  0.450
  3.820	 -0.635	  0.460
  3.824	 -0.570	  0.490
  3.828	 -0.520	  0.525
  3.832	 -0.470	  0.540
  3.836	 -0.435	  0.565
  3.840	 -0.410	  0.580
  3.844	 -0.420	  0.605
  3.848	 -0.430	  0.595
  3.852	 -0.440	  0.635
  3.856	 -0.430	  0.630
  3.860	 -0.415	  0.625
  3.864	 -0.415	  0.655
  3.868	 -0.445	  0.655
  3.872	 -0.405	  0.640
  3.876	 -0.420	  0.670
  3.880	 -0.420	  0.700
  3.884	 -0.425	  0.695
  3.888	 -0.415	  0.680
  3.892	 -0.435	  0.690
  3.896	 -0.450	  0.670
  3.900	 -0.445	  0.660
  3.904	 -0.460	  0.690
  3.908	 -0.430	  0.685
  3.912	 -0.470	  0.695
  3.916	 -0.445	  0.690
  3.920	 -0.465	  0.680
  3.924	 -0.460	  0.680
  3.928	 -0.460	  0.665
  3.932	 -0.465	  0.705
  3.936	 -0.485	  0.690
  3.940	 -0.495	  0.665
  3.944	 -0.500	  0.635
  3.948	 -0.520	  0.655
  3.952	 -0.525	  0.645
  3.956	 -0.525	  0.670
  3.960	 -0.520	  0.655
  3.964	 -0.520	  0.645
  3.968	 -0.480	  0.645
  3.972	 -0.500	  0.620
  3.976	 -0.525	  0.620
  3.980	 -0.530	  0.620
  3.984	 -0.540	  0.620
  3.988	 -0.545	  0.600
  3.992	 -0.555	  0.590
  3.996	 -0.555	  0.605
  4.000	 -0.555	  0.605
  4.004	 -0.545	  0.605
  4.008	 -0.540	  0.600
  4.012	 -0.540	  0.630
  4.016	 -0.530	  0.620
  4.020	 -0.540	  0.615
  4.024	 -0.560	  0.580
  4.028	 -0.580	  0.615
  4.032	 -0.590	  0.610
  4.036	 -0.595	  0.580
  4.040	 -0.595	  0.585
  4.044	 -0.570	  0.605
  4.048	 -0.570	  0.585
  4.052	 -0.575	  0.605
  4.056	 -0.555	  0.585
  4.060	 -0.570	  0.595
  4.064	 -0.575	  0.570
  4.068	 -0.595	  0.580
  4.072	 -0.605	  0.595
  4.076	 -0.620	  0.575
  4.080	 -0.620	  0.560
  4.084	 -0.620	  0.570
  4.088	 -0.610	  0.580
  4.092	 -0.600	  0.580
  4.096	 -0.585	  0.580
  4.100	 -0.585	  0.590
  4.104	 -0.595	  0.575
  4.108	 -0.605	  0.570
  4.112	 -0.595	  0.575
  4.116	 -0.590	  0.590
  4.120	 -0.635	  0.585
  4.124	 -0.605	  0.585
  4.128	 -0.615	  0.570
  4.132	 -0.615	  0.575
  4.136	 -0.620	  0.565
  4.140	 -0.580	  0.565
  4.144	 -0.570	  0.545
  4.148	 -0.605	  0.545
  4.152	 -0.600	  0.575
  4.156	 -0.615	  0.575
  4.160	 -0.635	  0.570
  4.164	 -0.640	  0.555
  4.168	 -0.650	  0.565
  4.172	 -0.640	  0.550
  4.176	 -0.625	  0.560
  4.180	 -0.625	  0.560
  4.184	 -0.595	  0.555
  4.188	 -0.610	  0.565
  4.192	 -0.585	  0.585
  4.196	 -0.610	  0.535
  4.200	 -0.620	  0.550
  4.204	 -0.650	  0.565
  4.208	 -0.640	  0.565
  4.212	 -0.630	  0.555
  4.216	 -0.640	  0.560
  4.220	 -0.655	  0.555
  4.224	 -0.630	  0.535
  4.228	 -0.620	  0.535
  4.232	 -0.625	  0.555
  4.236	 -0.615	  0.565
  4.240	 -0.635	  0.570
  4.244	 -0.630	  0.595
  4.248	 -0.635	  0.565
  4.252	 -0.660	  0.575
  4.256	 -0.650	  0.580
  4.260	 -0.665	  0.555
  4.264	 -0.655	  0.530
  4.268	 -0.645	  0.530
  4.272	 -0.635	  0.550
  4.276	 -0.615	  0.570
  4.280	 -0.610	  0.545
  4.284	 -0.640	  0.560
  4.288	 -0.625	  0.540
  4.292	 -0.650	  0.525
  4.296	 -0.660	  0.525
  4.300	 -0.665	  0.525
  4.304	 -0.660	  0.535
  4.308	 -0.650	  0.515
  4.312	 -0.610	  0.525
  4.316	 -0.560	  0.525
  4.320	 -0.545	  0.540
  4.324	 -0.500	  0.575
  4.328	 -0.510	  0.590
  4.332	 -0.510	  0.610
  4.336	 -0.520	  0.590
  4.340	 -0.505	  0.600
  4.344	 -0.510	  0.590
  4.348	 -0.495	  0.585
  4.352	 -0.490	  0.570
  4.356	 -0.490	  0.550
  4.360	 -0.490	  0.535
  4.364	 -0.510	  0.490
  4.368	 -0.530	  0.460
  4.372	 -0.570	  0.460
  4.376	 -0.580	  0.470
  4.380	 -0.630	  0.450
  4.384	 -0.650	  0.470
  4.388	 -0.675	  0.500
  4.392	 -0.695	  0.505
  4.396	 -0.725	  0.525
  4.400	 -0.720	  0.525
  4.404	 -0.705	  0.515
  4.408	 -0.700	  0.495
  4.412	 -0.700	  0.490
  4.416	 -0.690	  0.485
  4.420	 -0.665	  0.480
  4.424	 -0.635	  0.490
  4.428	 -0.580	  0.510
  4.432	 -0.475	  0.585
  4.436	 -0.195	  0.620
  4.440	  0.160	  0.560
  4.444	  0.440	  0.555
  4.448	  0.595	  0.480
  4.452	  0.720	  0.155
  4.456	  0.620	 -0.355
  4.460	 -0.100	 -0.825
  4.464	 -1.050	 -1.180
  4.468	 -1.740	 -1.405
  4.472	 -2.025	 -1.690
  4.476	 -2.065	 -1.935
  4.480	 -1.895	 -1.940
  4.484	 -1.630	 -1.635
  4.488	 -1.325	 -1.245
  4.492	 -1.070	 -0.880
  4.496	 -0.940	 -0.475
  4.500	 -0.870	 -0.150
  4.504	 -0.795	  0.085
  4.508	 -0.770	  0.275
  4.512	 -0.795	  0.380
  4.516	 -0.800	  0.440
  4.520	 -0.800	  0.445
  4.524	 -0.790	  0.445
  4.528	 -0.790	  0.460
  4.532	 -0.760	  0.495
  4.536	 -0.745	  0.485
  4.540	 -0.735	  0.495
  4.544	 -0.750	  0.495
  4.548	 -0.770	  0.520
  4.552	 -0.765	  0.515
  4.556	 -0.785	  0.515
  4.560	 -0.805	  0.525
  4.564	 -0.800	  0.530
  4.568	 -0.790	  0.515
  4.572	 -0.815	  0.545
  4.576	 -0.810	  0.535
  4.580	 -0.785	  0.535
  4.584	 -0.790	  0.525
  4.588	 -0.800	  0.520
  4.592	 -0.790	  0.515
  4.596	 -0.815	  0.505
  4.600	 -0.815	  0.525
  4.604	 -0.835	  0.520
  4.608	 -0.860	  0.525
  4.612	 -0.845	  0.545
  4.616	 -0.875	  0.530
  4.620	 -0.865	  0.480
  4.624	 -0.875	  0.490
  4.628	 -0.860	  0.505
  4.632	 -0.845	  0.495
  4.636	 -0.890	  0.500
  4.640	 -0.925	  0.495
  4.644	 -0.970	  0.470
  4.648	 -0.975	  0.465
  4.652	 -0.995	  0.450
  4.656	 -1.005	  0.465
  4.660	 -1.040	  0.445
  4.664	 -1.060	  0.435
  4.668	 -1.035	  0.430
  4.672	 -1.060	  0.415
  4.676	 -1.070	  0.415
  4.680	 -1.085	  0.405
  4.684	 -1.105	  0.390
  4.688	 -1.135	  0.370
  4.692	 -1.150	  0.370
  4.696	 -1.155	  0.340
  4.700	 -1.190	  0.370
  4.704	 -1.190	  0.335
  4.708	 -1.215	  0.295
  4.712	 -1.210	  0.300
  4.716	 -1.210	  0.290
  4.720	 -1.225	  0.270
  4.724	 -1.230	  0.255
  4.728	 -1.240	  0.220
  4.732	 -1.235	  0.230
  4.736	 -1.215	  0.200
  4.740	 -1.185	  0.220
  4.744	 -1.165	  0.190
  4.748	 -1.125	  0.210
  4.752	 -1.060	  0.210
  4.756	 -1.010	  0.225
  4.760	 -0.965	  0.245
  4.764	 -0.930	  0.265
  4.768	 -0.855	  0.260
  4.772	 -0.795	  0.290
  4.776	 -0.730	  0.310
  4.780	 -0.665	  0.305
  4.784	 -0.640	  0.320
  4.788	 -0.640	  0.335
  4.792	 -0.590	  0.370
  4.796	 -0.555	  0.375
  4.800	 -0.540	  0.430
  4.804	 -0.535	  0.455
  4.808	 -0.520	  0.475
  4.812	 -0.505	  0.485
  4.816	 -0.540	  0.470
  4.820	 -0.550	  0.460
  4.824	 -0.560	  0.465
  4.828	 -0.580	  0.475
  4.832	 -0.575	  0.450
  4.836	 -0.575	  0.455
  4.840	 -0.545	  0.455
  4.844	 -0.530	  0.445
  4.848	 -0.550	  0.445
  4.852	 -0.545	  0.455
  4.856	 -0.540	  0.440
  4.860	 -0.560	  0.440
  4.864	 -0.565	  0.430
  4.868	 -0.580	  0.425
  4.872	 -0.580	  0.435
  4.876	 -0.565	  0.430
  4.880	 -0.565	  0.420
  4.884	 -0.575	  0.430
  4.888	 -0.570	  0.445
  4.892	 -0.585	  0.420
  4.896	 -0.580	  0.440
  4.900	 -0.570	  0.405
  4.904	 -0.590	  0.390
  4.908	 -0.615	  0.415
  4.912	 -0.625	  0.395
  4.916	 -0.620	  0.395
  4.920	 -0.620	  0.385
  4.924	 -0.605	  0.390
  4.928	 -0.590	  0.380
  4.932	 -0.580	  0.380
  4.936	 -0.580	  0.375
  4.940	 -0.590	  0.375
  4.944	 -0.595	  0.370
  4.948	 -0.610	  0.340
  4.952	 -0.620	  0.335
  4.956	 -0.610	  0.345
  4.960	 -0.600	  0.340
  4.964	 -0.605	  0.335
  4.968	 -0.600	  0.335
  4.972	 -0.580	  0.315
  4.976	 -0.575	  0.315
  4.980	 -0.550	  0.360
  4.984	 -0.545	  0.335
  4.988	 -0.575	  0.355
  4.992	 -0.605	  0.415
  4.996	 -0.545	  0.450
  5.000	 -0.330	  0.400
  5.004	  0.055	  0.310
  5.008	  0.425	  0.160
  5.012	  0.710	 -0.005
  5.016	  0.565	  0.020
  5.020	 -0.325	  0.060
  5.024	 -1.260	 -0.180
  5.028	 -1.800	 -0.550
  5.032	 -2.020	 -0.935
  5.036	 -2.015	 -1.145
  5.040	 -1.925	 -1.180
  5.044	 -1.765	 -1.155
  5.048	 -1.495	 -1.020
  5.052	 -1.140	 -0.815
  5.056	 -0.815	 -0.580
  5.060	 -0.630	 -0.315
  5.064	 -0.545	 -0.095
  5.068	 -0.535	  0.060
  5.072	 -0.505	  0.210
  5.076	 -0.505	  0.340
  5.080	 -0.520	  0.350
  5.084	 -0.510	  0.365
  5.088	 -0.495	  0.365
  5.092	 -0.525	  0.395
  5.096	 -0.520	  0.395
  5.100	 -0.490	  0.375
  5.104	 -0.500	  0.380
  5.108	 -0.520	  0.360
  5.112	 -0.515	  0.335
  5.116	 -0.520	  0.310
  5.120	 -0.545	  0.270
  5.124	 -0.570	  0.290
  5.128	 -0.595	  0.265
  5.132	 -0.610	  0.235
  5.136	 -0.600	  0.210
  5.140	 -0.615	  0.210
  5.144	 -0.605	  0.195
  5.148	 -0.615	  0.190
  5.152	 -0.625	  0.165
  5.156	 -0.615	  0.175
  5.160	 -0.640	  0.130
  5.164	 -0.655	  0.125
  5.168	 -0.660	  0.085
  5.172	 -0.680	  0.085
  5.176	 -0.680	  0.110
  5.180	 -0.710	  0.100
  5.184	 -0.730	  0.095
  5.188	 -0.735	  0.085
  5.192	 -0.730	  0.075
  5.196	 -0.750	  0.085
  5.200	 -0.770	  0.070
  5.204	 -0.770	  0.070
  5.208	 -0.800	  0.040
  5.212	 -0.825	  0.055
  5.216	 -0.860	  0.035
  5.220	 -0.910	  0.045
  5.224	 -0.925	 -0.005
  5.228	 -0.925	 -0.015
  5.232	 -0.915	 -0.010
  5.236	 -0.910	 -0.040
  5.240	 -0.905	 -0.060
  5.244	 -0.925	 -0.070
  5.248	 -0.940	 -0.095
  5.252	 -0.965	 -0.120
  5.256	 -0.980	 -0.125
  5.260	 -0.960	 -0.120
  5.264	 -0.960	 -0.135
  5.268	 -0.935	 -0.145
  5.272	 -0.905	 -0.185
  5.276	 -0.860	 -0.215
  5.280	 -0.825	 -0.235
  5.284	 -0.780	 -0.200
  5.288	 -0.740	 -0.200
  5.292	 -0.675	 -0.205
  5.296	 -0.635	 -0.215
  5.300	 -0.590	 -0.210
  5.304	 -0.525	 -0.220
  5.308	 -0.505	 -0.170
  5.312	 -0.465	 -0.135
  5.316	 -0.445	 -0.105
  5.320	 -0.400	 -0.065
  5.324	 -0.375	 -0.030
  5.328	 -0.345	 -0.015
  5.332	 -0.355	  0.025
  5.336	 -0.350	  0.035
  5.340	 -0.380	  0.060
  5.344	 -0.380	  0.080
  5.348	 -0.405	  0.110
  5.352	 -0.425	  0.115
  5.356	 -0.435	  0.125
  5.360	 -0.440	  0.125
  5.364	 -0.440	  0.140
  5.368	 -0.440	  0.115
  5.372	 -0.445	  0.125
  5.376	 -0.430	  0.140
  5.380	 -0.440	  0.145
  5.384	 -0.485	  0.145
  5.388	 -0.500	  0.125
  5.392	 -0.485	  0.135
  5.396	 -0.500	  0.120
  5.400	 -0.505	  0.130
  5.404	 -0.490	  0.115
  5.408	 -0.490	  0.105
  5.412	 -0.480	  0.115
  5.416	 -0.485	  0.115
  5.420	 -0.480	  0.130
  5.424	 -0.490	  0.110
  5.428	 -0.500	  0.110
  5.432	 -0.505	  0.090
  5.436	 -0.505	  0.070
  5.440	 -0.530	  0.080
  5.444	 -0.520	  0.070
  5.448	 -0.550	  0.060
  5.452	 -0.520	  0.075
  5.456	 -0.485	  0.045
  5.460	 -0.495	  0.040
  5.464	 -0.510	  0.060
  5.468	 -0.490	  0.065
  5.472	 -0.510	  0.040
  5.476	 -0.505	  0.075
  5.480	 -0.530	  0.050
  5.484	 -0.530	  0.060
  5.488	 -0.520	  0.065
  5.492	 -0.520	  0.055
  5.496	 -0.485	  0.050
  5.500	 -0.455	  0.030
  5.504	 -0.425	  0.045
  5.508	 -0.380	  0.020
  5.512	 -0.300	  0.045
  5.516	 -0.240	  0.060
  5.520	 -0.200	  0.085
  5.524	 -0.180	  0.125
  5.528	 -0.160	  0.170
  5.532	 -0.170	  0.175
  5.536	 -0.210	  0.150
  5.540	 -0.215	  0.105
  5.544	 -0.235	  0.095
  5.548	 -0.285	  0.075
  5.552	 -0.315	  0.055
  5.556	 -0.365	  0.065
  5.560	 -0.435	  0.060
  5.564	 -0.495	  0.035
  5.568	 -0.535	  0.035
  5.572	 -0.560	  0.020
  5.576	 -0.580	  0.000
  5.580	 -0.560	 -0.045
  5.584	 -0.570	 -0.060
  5.588	 -0.560	 -0.075
  5.592	 -0.535	 -0.065
  5.596	 -0.535	 -0.075
  5.600	 -0.530	 -0.100
  5.604	 -0.550	 -0.105
  5.608	 -0.530	 -0.100
  5.612	 -0.480	 -0.085
  5.616	 -0.445	 -0.040
  5.620	 -0.365	  0.020
  5.624	 -0.125	  0.035
  5.628	  0.225	 -0.045
  5.632	  0.535	 -0.075
  5.636	  0.720	 -0.135
  5.640	  0.845	 -0.410
  5.644	  0.705	 -0.925
  5.648	 -0.025	 -1.390
  5.652	 -1.010	 -1.795
  5.656	 -1.665	 -2.080
  5.660	 -1.940	 -2.355
  5.664	 -1.940	 -2.590
  5.668	 -1.725	 -2.580
  5.672	 -1.415	 -2.285
  5.676	 -1.070	 -1.875
  5.680	 -0.825	 -1.440
  5.684	 -0.720	 -1.050
  5.688	 -0.655	 -0.705
  5.692	 -0.640	 -0.455
  5.696	 -0.640	 -0.295
  5.700	 -0.640	 -0.220
  5.704	 -0.620	 -0.160
  5.708	 -0.605	 -0.135
  5.712	 -0.610	 -0.115
  5.716	 -0.590	 -0.115
  5.720	 -0.570	 -0.105
  5.724	 -0.560	 -0.080
  5.728	 -0.560	 -0.085
  5.732	 -0.570	 -0.095
  5.736	 -0.560	 -0.075
  5.740	 -0.560	 -0.060
  5.744	 -0.580	 -0.055
  5.748	 -0.610	 -0.030
  5.752	 -0.590	 -0.055
  5.756	 -0.585	 -0.045
  5.760	 -0.585	 -0.040
  5.764	 -0.585	 -0.040
  5.768	 -0.560	 -0.025
  5.772	 -0.585	 -0.040
  5.776	 -0.610	 -0.030
  5.780	 -0.620	 -0.035
  5.784	 -0.635	 -0.030
  5.788	 -0.665	 -0.050
  5.792	 -0.685	 -0.020
  5.796	 -0.665	 -0.045
  5.800	 -0.665	 -0.055
  5.804	 -0.685	 -0.065
  5.808	 -0.670	 -0.060
  5.812	 -0.665	 -0.075
  5.816	 -0.685	 -0.055
  5.820	 -0.705	 -0.075
  5.824	 -0.725	 -0.090
  5.828	 -0.755	 -0.105
  5.832	 -0.795	 -0.085
  5.836	 -0.795	 -0.100
  5.840	 -0.825	 -0.130
  5.844	 -0.840	 -0.130
  5.848	 -0.865	 -0.125
  5.852	 -0.845	 -0.145
  5.856	 -0.850	 -0.165
  5.860	 -0.885	 -0.175
  5.864	 -0.885	 -0.180
  5.868	 -0.920	 -0.190
  5.872	 -0.975	 -0.180
  5.876	 -0.990	 -0.240
  5.880	 -1.000	 -0.215
  5.884	 -1.000	 -0.235
  5.888	 -1.030	 -0.255
  5.892	 -1.020	 -0.290
  5.896	 -1.020	 -0.300
  5.900	 -1.030	 -0.320
  5.904	 -0.990	 -0.310
  5.908	 -1.005	 -0.300
  5.912	 -1.005	 -0.305
  5.916	 -1.005	 -0.320
  5.920	 -0.990	 -0.350
  5.924	 -0.955	 -0.355
  5.928	 -0.900	 -0.360
  5.932	 -0.850	 -0.350
  5.936	 -0.800	 -0.345
  5.940	 -0.715	 -0.310
  5.944	 -0.670	 -0.315
  5.948	 -0.580	 -0.290
  5.952	 -0.540	 -0.320
  5.956	 -0.500	 -0.285
  5.960	 -0.470	 -0.275
  5.964	 -0.435	 -0.260
  5.968	 -0.410	 -0.240
  5.972	 -0.385	 -0.220
  5.976	 -0.355	 -0.200
  5.980	 -0.325	 -0.180
  5.984	 -0.300	 -0.155
  5.988	 -0.265	 -0.110
  5.992	 -0.265	 -0.115
  5.996	 -0.260	 -0.145
  6.000	 -0.270	 -0.115
  6.004	 -0.280	 -0.110
  6.008	 -0.280	 -0.105
  6.012	 -0.295	 -0.115
  6.016	 -0.290	 -0.095
  6.020	 -0.280	 -0.085
  6.024	 -0.295	 -0.095
  6.028	 -0.275	 -0.110
  6.032	 -0.270	 -0.120
  6.036	 -0.250	 -0.120
  6.040	 -0.265	 -0.135
  6.044	 -0.275	 -0.125
  6.048	 -0.300	 -0.135
  6.052	 -0.305	 -0.115
  6.056	 -0.305	 -0.125
  6.060	 -0.290	 -0.130
  6.064	 -0.310	 -0.155
  6.068	 -0.275	 -0.150
  6.072	 -0.280	 -0.140
  6.076	 -0.285	 -0.150
  6.080	 -0.305	 -0.175
  6.084	 -0.295	 -0.170
  6.088	 -0.335	 -0.190
  6.092	 -0.345	 -0.180
  6.096	 -0.305	 -0.185
  6.100	 -0.330	 -0.190
  6.104	 -0.330	 -0.190
  6.108	 -0.310	 -0.195
  6.112	 -0.315	 -0.200
  6.116	 -0.305	 -0.190
  6.120	 -0.315	 -0.210
  6.124	 -0.315	 -0.205
  6.128	 -0.320	 -0.225
  6.132	 -0.325	 -0.225
  6.136	 -0.330	 -0.220
  6.140	 -0.340	 -0.220
  6.144	 -0.330	 -0.240
  6.148	 -0.335	 -0.210
  6.152	 -0.340	 -0.220
  6.156	 -0.340	 -0.225
  6.160	 -0.305	 -0.215
  6.164	 -0.295	 -0.235
  6.168	 -0.305	 -0.210
  6.172	 -0.305	 -0.215
  6.176	 -0.310	 -0.235
  6.180	 -0.345	 -0.235
  6.184	 -0.335	 -0.240
  6.188	 -0.340	 -0.260
  6.192	 -0.330	 -0.265
  6.196	 -0.350	 -0.250
  6.200	 -0.335	 -0.260
  6.204	 -0.320	 -0.235
  6.208	 -0.305	 -0.270
  6.212	 -0.300	 -0.240
  6.216	 -0.315	 -0.245
  6.220	 -0.320	 -0.260
  6.224	 -0.330	 -0.270
  6.228	 -0.330	 -0.280
  6.232	 -0.340	 -0.280
  6.236	 -0.315	 -0.290
  6.240	 -0.310	 -0.260
  6.244	 -0.325	 -0.300
  6.248	 -0.310	 -0.285
  6.252	 -0.320	 -0.270
  6.256	 -0.305	 -0.270
  6.260	 -0.305	 -0.275
  6.264	 -0.310	 -0.280
  6.268	 -0.320	 -0.290
  6.272	 -0.330	 -0.280
  6.276	 -0.300	 -0.300
  6.280	 -0.320	 -0.305
  6.284	 -0.330	 -0.275
  6.288	 -0.320	 -0.300
  6.292	 -0.330	 -0.295
  6.296	 -0.295	 -0.295
  6.300	 -0.280	 -0.300
  6.304	 -0.290	 -0.315
  6.308	 -0.295	 -0.320
  6.312	 -0.310	 -0.300
  6.316	 -0.320	 -0.305
  6.320	 -0.320	 -0.330
  6.324	 -0.315	 -0.320
  6.328	 -0.325	 -0.335
  6.332	 -0.320	 -0.335
  6.336	 -0.320	 -0.325
  6.340	 -0.305	 -0.310
  6.344	 -0.290	 -0.325
  6.348	 -0.295	 -0.300
  6.352	 -0.290	 -0.315
  6.356	 -0.310	 -0.320
  6.360	 -0.310	 -0.320
  6.364	 -0.310	 -0.320
  6.368	 -0.320	 -0.310
  6.372	 -0.305	 -0.315
  6.376	 -0.295	 -0.305
  6.380	 -0.280	 -0.315
  6.384	 -0.275	 -0.330
  6.388	 -0.250	 -0.290
  6.392	 -0.265	 -0.345
  6.396	 -0.265	 -0.355
  6.400	 -0.260	 -0.335
  6.404	 -0.265	 -0.340
  6.408	 -0.290	 -0.335
  6.412	 -0.270	 -0.350
  6.416	 -0.250	 -0.360
  6.420	 -0.255	 -0.360
  6.424	 -0.240	 -0.350
  6.428	 -0.235	 -0.345
  6.432	 -0.210	 -0.355
  6.436	 -0.200	 -0.365
  6.440	 -0.160	 -0.360
  6.444	 -0.155	 -0.360
  6.448	 -0.135	 -0.335
  6.452	 -0.130	 -0.320
  6.456	 -0.135	 -0.280
  6.460	 -0.125	 -0.280
  6.464	 -0.085	 -0.265
  6.468	 -0.055	 -0.285
  6.472	  0.000	 -0.290
  6.476	  0.030	 -0.315
  6.480	  0.025	 -0.320
  6.484	  0.040	 -0.295
  6.488	  0.030	 -0.350
  6.492	 -0.035	 -0.355
  6.496	 -0.080	 -0.400
  6.500	 -0.110	 -0.425
  6.504	 -0.140	 -0.415
  6.508	 -0.185	 -0.380
  6.512	 -0.215	 -0.385
  6.516	 -0.200	 -0.405
  6.520	 -0.205	 -0.375
  6.524	 -0.225	 -0.385
  6.528	 -0.225	 -0.425
  6.532	 -0.245	 -0.435
  6.536	 -0.230	 -0.435
  6.540	 -0.230	 -0.440
  6.544	 -0.240	 -0.430
  6.548	 -0.205	 -0.440
  6.552	 -0.130	 -0.380
  6.556	 -0.070	 -0.325
  6.560	  0.115	 -0.275
  6.564	  0.440	 -0.275
  6.568	  0.775	 -0.320
  6.572	  0.980	 -0.360
  6.576	  1.165	 -0.465
  6.580	  1.265	 -0.835
  6.584	  0.990	 -1.280
  6.588	  0.120	 -1.710
  6.592	 -0.790	 -2.075
  6.596	 -1.365	 -2.290
  6.600	 -1.535	 -2.485
  6.604	 -1.455	 -2.605
  6.608	 -1.260	 -2.530
  6.612	 -0.980	 -2.300
  6.616	 -0.715	 -2.010
  6.620	 -0.500	 -1.660
  6.624	 -0.400	 -1.270
  6.628	 -0.350	 -0.955
  6.632	 -0.295	 -0.680
  6.636	 -0.280	 -0.570
  6.640	 -0.275	 -0.490
  6.644	 -0.245	 -0.445
  6.648	 -0.240	 -0.425
  6.652	 -0.225	 -0.410
  6.656	 -0.240	 -0.415
  6.660	 -0.220	 -0.395
  6.664	 -0.195	 -0.390
  6.668	 -0.220	 -0.395
  6.672	 -0.245	 -0.380
  6.676	 -0.245	 -0.375
  6.680	 -0.260	 -0.355
  6.684	 -0.260	 -0.340
  6.688	 -0.260	 -0.335
  6.692	 -0.240	 -0.355
  6.696	 -0.225	 -0.385
  6.700	 -0.200	 -0.345
  6.704	 -0.220	 -0.375
  6.708	 -0.220	 -0.370
  6.712	 -0.230	 -0.345
  6.716	 -0.250	 -0.385
  6.720	 -0.275	 -0.375
  6.724	 -0.285	 -0.355
  6.728	 -0.280	 -0.400
  6.732	 -0.270	 -0.365
  6.736	 -0.260	 -0.370
  6.740	 -0.250	 -0.365
  6.744	 -0.255	 -0.340
  6.748	 -0.270	 -0.360
  6.752	 -0.275	 -0.340
  6.756	 -0.290	 -0.380
  6.760	 -0.335	 -0.395
  6.764	 -0.350	 -0.400
  6.768	 -0.345	 -0.395
  6.772	 -0.360	 -0.420
  6.776	 -0.360	 -0.410
  6.780	 -0.360	 -0.400
  6.784	 -0.355	 -0.395
  6.788	 -0.365	 -0.410
  6.792	 -0.360	 -0.430
  6.796	 -0.405	 -0.445
  6.800	 -0.440	 -0.455
  6.804	 -0.490	 -0.465
  6.808	 -0.480	 -0.475
  6.812	 -0.500	 -0.505
  6.816	 -0.510	 -0.520
  6.820	 -0.525	 -0.520
  6.824	 -0.505	 -0.545
  6.828	 -0.505	 -0.535
  6.832	 -0.515	 -0.520
  6.836	 -0.505	 -0.550
  6.840	 -0.510	 -0.575
  6.844	 -0.540	 -0.580
  6.848	 -0.545	 -0.625
  6.852	 -0.515	 -0.595
  6.856	 -0.540	 -0.615
  6.860	 -0.550	 -0.640
  6.864	 -0.555	 -0.640
  6.868	 -0.530	 -0.655
  6.872	 -0.500	 -0.685
  6.876	 -0.460	 -0.660
  6.880	 -0.415	 -0.675
  6.884	 -0.375	 -0.680
  6.888	 -0.360	 -0.670
  6.892	 -0.330	 -0.680
  6.896	 -0.285	 -0.675
  6.900	 -0.245	 -0.680
  6.904	 -0.210	 -0.665
  6.908	 -0.170	 -0.645
  6.912	 -0.110	 -0.600
  6.916	 -0.050	 -0.575
  6.920	  0.005	 -0.575
  6.924	  0.035	 -0.525
  6.928	  0.060	 -0.520
  6.932	  0.085	 -0.480
  6.936	  0.080	 -0.450
  6.940	  0.075	 -0.405
  6.944	  0.100	 -0.380
  6.948	  0.110	 -0.355
  6.952	  0.120	 -0.360
  6.956	  0.135	 -0.345
  6.960	  0.145	 -0.330
  6.964	  0.155	 -0.305
  6.968	  0.135	 -0.290
  6.972	  0.145	 -0.285
  6.976	  0.125	 -0.305
  6.980	  0.120	 -0.315
  6.984	  0.095	 -0.295
  6.988	  0.110	 -0.290
  6.992	  0.105	 -0.300
  6.996	  0.105	 -0.310
  7.000	  0.100	 -0.310
  7.004	  0.080	 -0.305
  7.008	  0.085	 -0.300
  7.012	  0.125	 -0.305
  7.016	  0.130	 -0.310
  7.020	  0.095	 -0.315
  7.024	  0.105	 -0.300
  7.028	  0.100	 -0.305
  7.032	  0.080	 -0.310
  7.036	  0.090	 -0.330
  7.040	  0.090	 -0.320
  7.044	  0.100	 -0.320
  7.048	  0.125	 -0.345
  7.052	  0.100	 -0.340
  7.056	  0.095	 -0.335
  7.060	  0.100	 -0.330
  7.064	  0.090	 -0.310
  7.068	  0.055	 -0.340
  7.072	  0.065	 -0.345
  7.076	  0.055	 -0.345
  7.080	  0.050	 -0.345
  7.084	  0.060	 -0.355
  7.088	  0.055	 -0.375
  7.092	  0.075	 -0.335
  7.096	  0.075	 -0.350
  7.100	  0.095	 -0.345
  7.104	  0.100	 -0.350
  7.108	  0.090	 -0.375
  7.112	  0.080	 -0.375
  7.116	  0.045	 -0.370
  7.120	  0.050	 -0.370
  7.124	  0.065	 -0.380
  7.128	  0.085	 -0.355
  7.132	  0.070	 -0.380
  7.136	  0.110	 -0.390
  7.140	  0.110	 -0.380
  7.144	  0.110	 -0.355
  7.148	  0.105	 -0.345
  7.152	  0.100	 -0.370
  7.156	  0.085	 -0.380
  7.160	  0.080	 -0.385
  7.164	  0.075	 -0.375
  7.168	  0.075	 -0.390
  7.172	  0.080	 -0.370
  7.176	  0.075	 -0.375
  7.180	  0.080	 -0.365
  7.184	  0.110	 -0.355
  7.188	  0.105	 -0.350
  7.192	  0.090	 -0.350
  7.196	  0.110	 -0.370
  7.200	  0.100	 -0.355
  7.204	  0.070	 -0.380
  7.208	  0.070	 -0.380
  7.212	  0.095	 -0.380
  7.216	  0.080	 -0.395
  7.220	  0.095	 -0.400
  7.224	  0.095	 -0.395
  7.228	  0.090	 -0.395
  7.232	  0.080	 -0.410
  7.236	  0.090	 -0.395
  7.240	  0.120	 -0.395
  7.244	  0.100	 -0.395
  7.248	  0.100	 -0.385
  7.252	  0.095	 -0.385
  7.256	  0.060	 -0.395
  7.260	  0.070	 -0.415
  7.264	  0.065	 -0.400
  7.268	  0.095	 -0.395
  7.272	  0.110	 -0.355
  7.276	  0.110	 -0.395
  7.280	  0.115	 -0.390
  7.284	  0.125	 -0.400
  7.288	  0.145	 -0.370
  7.292	  0.165	 -0.365
  7.296	  0.175	 -0.360
  7.300	  0.180	 -0.345
  7.304	  0.190	 -0.325
  7.308	  0.225	 -0.320
  7.312	  0.235	 -0.325
  7.316	  0.275	 -0.290
  7.320	  0.300	 -0.300
  7.324	  0.270	 -0.315
  7.328	  0.255	 -0.355
  7.332	  0.280	 -0.390
  7.336	  0.245	 -0.440
  7.340	  0.175	 -0.450
  7.344	  0.155	 -0.465
  7.348	  0.120	 -0.475
  7.352	  0.105	 -0.470
  7.356	  0.115	 -0.465
  7.360	  0.105	 -0.420
  7.364	  0.065	 -0.420
  7.368	  0.065	 -0.425
  7.372	  0.035	 -0.420
  7.376	  0.040	 -0.430
  7.380	  0.030	 -0.460
  7.384	  0.045	 -0.490
  7.388	  0.050	 -0.465
  7.392	  0.075	 -0.450
  7.396	  0.120	 -0.420
  7.400	  0.190	 -0.385
  7.404	  0.320	 -0.330
  7.408	  0.555	 -0.260
  7.412	  0.910	 -0.240
  7.416	  1.270	 -0.295
  7.420	  1.475	 -0.360
  7.424	  1.615	 -0.480
  7.428	  1.430	 -0.745
  7.432	  0.665	 -1.120
  7.436	 -0.320	 -1.470
  7.440	 -0.985	 -1.735
  7.444	 -1.235	 -1.900
  7.448	 -1.175	 -2.050
  7.452	 -1.030	 -2.100
  7.456	 -0.870	 -2.030
  7.460	 -0.615	 -1.790
  7.464	 -0.400	 -1.550
  7.468	 -0.250	 -1.355
  7.472	 -0.155	 -1.075
  7.476	 -0.130	 -0.830
  7.480	 -0.060	 -0.665
  7.484	 -0.035	 -0.550
  7.488	 -0.010	 -0.475
  7.492	  0.005	 -0.445
  7.496	  0.025	 -0.410
  7.500	  0.020	 -0.375
  7.504	  0.015	 -0.365
  7.508	  0.020	 -0.395
  7.512	  0.010	 -0.360
  7.516	  0.020	 -0.360
  7.520	  0.005	 -0.360
  7.524	 -0.005	 -0.340
  7.528	 -0.015	 -0.370
  7.532	  0.010	 -0.390
  7.536	  0.045	 -0.380
  7.540	  0.030	 -0.370
  7.544	  0.020	 -0.390
  7.548	  0.005	 -0.380
  7.552	 -0.015	 -0.385
  7.556	 -0.040	 -0.385
  7.560	 -0.060	 -0.375
  7.564	 -0.045	 -0.340
  7.568	 -0.080	 -0.375
  7.572	 -0.075	 -0.370
  7.576	 -0.085	 -0.370
  7.580	 -0.070	 -0.370
  7.584	 -0.080	 -0.365
  7.588	 -0.110	 -0.360
  7.592	 -0.080	 -0.370
  7.596	 -0.115	 -0.370
  7.600	 -0.145	 -0.380
  7.604	 -0.190	 -0.410
  7.608	 -0.175	 -0.415
  7.612	 -0.190	 -0.400
  7.616	 -0.210	 -0.390
  7.620	 -0.240	 -0.415
  7.624	 -0.260	 -0.400
  7.628	 -0.295	 -0.415
  7.632	 -0.310	 -0.460
  7.636	 -0.345	 -0.435
  7.640	 -0.360	 -0.485
  7.644	 -0.420	 -0.480
  7.648	 -0.430	 -0.505
  7.652	 -0.450	 -0.500
  7.656	 -0.495	 -0.525
  7.660	 -0.520	 -0.555
  7.664	 -0.540	 -0.550
  7.668	 -0.535	 -0.590
  7.672	 -0.515	 -0.595
  7.676	 -0.555	 -0.595
  7.680	 -0.575	 -0.590
  7.684	 -0.590	 -0.605
  7.688	 -0.615	 -0.615
  7.692	 -0.625	 -0.620
  7.696	 -0.620	 -0.640
  7.700	 -0.640	 -0.650
  7.704	 -0.620	 -0.650
  7.708	 -0.570	 -0.655
  7.712	 -0.530	 -0.665
  7.716	 -0.475	 -0.685
  7.720	 -0.435	 -0.710
  7.724	 -0.415	 -0.695
  7.728	 -0.365	 -0.660
  7.732	 -0.310	 -0.655
  7.736	 -0.265	 -0.650
  7.740	 -0.235	 -0.640
  7.744	 -0.195	 -0.635
  7.748	 -0.150	 -0.595
  7.752	 -0.085	 -0.590
  7.756	 -0.050	 -0.545
  7.760	 -0.005	 -0.505
  7.764	  0.010	 -0.475
  7.768	  0.020	 -0.460
  7.772	  0.035	 -0.435
  7.776	  0.080	 -0.410
  7.780	  0.090	 -0.375
  7.784	  0.080	 -0.380
  7.788	  0.090	 -0.370
  7.792	  0.085	 -0.345
  7.796	  0.110	 -0.330
  7.800	  0.155	 -0.315
  7.804	  0.165	 -0.300
  7.808	  0.185	 -0.290
  7.812	  0.165	 -0.265
  7.816	  0.155	 -0.270
  7.820	  0.155	 -0.300
  7.824	  0.135	 -0.305
  7.828	  0.150	 -0.285
  7.832	  0.150	 -0.300
  7.836	  0.130	 -0.300
  7.840	  0.160	 -0.290
  7.844	  0.170	 -0.275
  7.848	  0.155	 -0.270
  7.852	  0.150	 -0.285
  7.856	  0.135	 -0.280
  7.860	  0.145	 -0.280
  7.864	  0.125	 -0.270
  7.868	  0.105	 -0.240
  7.872	  0.125	 -0.265
  7.876	  0.100	 -0.250
  7.880	  0.100	 -0.285
  7.884	  0.095	 -0.265
  7.888	  0.115	 -0.275
  7.892	  0.130	 -0.260
  7.896	  0.110	 -0.280
  7.900	  0.100	 -0.265
  7.904	  0.075	 -0.260
  7.908	  0.070	 -0.235
  7.912	  0.070	 -0.255
  7.916	  0.060	 -0.290
  7.920	  0.055	 -0.280
  7.924	  0.085	 -0.295
  7.928	  0.070	 -0.310
  7.932	  0.065	 -0.310
  7.936	  0.095	 -0.315
  7.940	  0.085	 -0.330
  7.944	  0.060	 -0.330
  7.948	  0.055	 -0.320
  7.952	  0.035	 -0.295
  7.956	  0.015	 -0.285
  7.960	  0.030	 -0.295
  7.964	  0.040	 -0.305
  7.968	  0.035	 -0.325
  7.972	  0.035	 -0.330
  7.976	  0.050	 -0.310
  7.980	  0.050	 -0.325
  7.984	  0.055	 -0.300
  7.988	  0.045	 -0.310
  7.992	  0.030	 -0.310
  7.996	  0.030	 -0.300
  8.000	  0.030	 -0.310
  8.004	  0.040	 -0.305
  8.008	  0.040	 -0.315
  8.012	  0.020	 -0.305
  8.016	  0.035	 -0.300
  8.020	  0.035	 -0.300
  8.024	  0.025	 -0.310
  8.028	  0.010	 -0.310
  8.032	  0.020	 -0.310
  8.036	  0.010	 -0.295
  8.040	  0.015	 -0.305
  8.044	  0.010	 -0.310
  8.048	 -0.015	 -0.325
  8.052	 -0.005	 -0.315
  8.056	  0.005	 -0.310
  8.060	 -0.010	 -0.320
  8.064	  0.015	 -0.320
  8.068	  0.015	 -0.315
  8.072	  0.015	 -0.325
  8.076	  0.005	 -0.315
  8.080	  0.015	 -0.305
  8.084	 -0.020	 -0.280
  8.088	 -0.015	 -0.305
  8.092	  0.000	 -0.290
  8.096	  0.000	 -0.295
  8.100	 -0.010	 -0.315
  8.104	  0.010	 -0.280
  8.108	  0.030	 -0.260
  8.112	  0.030	 -0.290
  8.116	  0.015	 -0.250
  8.120	  0.035	 -0.255
  8.124	  0.035	 -0.270
  8.128	  0.075	 -0.250
  8.132	  0.080	 -0.245
  8.136	  0.090	 -0.210
  8.140	  0.085	 -0.190
  8.144	  0.140	 -0.165
  8.148	  0.175	 -0.185
  8.152	  0.175	 -0.180
  8.156	  0.175	 -0.185
  8.160	  0.160	 -0.175
  8.164	  0.155	 -0.195
  8.168	  0.165	 -0.230
  8.172	  0.140	 -0.290
  8.176	  0.105	 -0.280
  8.180	  0.090	 -0.335
  8.184	  0.055	 -0.315
  8.188	  0.015	 -0.300
  8.192	  0.020	 -0.310
  8.196	  0.025	 -0.270
  8.200	  0.020	 -0.255
  8.204	 -0.020	 -0.260
  8.208	 -0.045	 -0.290
  8.212	 -0.065	 -0.265
  8.216	 -0.085	 -0.275
  8.220	 -0.065	 -0.315
  8.224	 -0.050	 -0.335
  8.228	 -0.055	 -0.310
  8.232	 -0.030	 -0.325
  8.236	  0.060	 -0.280
  8.240	  0.155	 -0.225
  8.244	  0.330	 -0.175
  8.248	  0.625	 -0.185
  8.252	  0.940	 -0.175
  8.256	  1.135	 -0.215
  8.260	  1.245	 -0.365
  8.264	  1.245	 -0.685
  8.268	  0.755	 -1.075
  8.272	 -0.195	 -1.425
  8.276	 -1.010	 -1.695
  8.280	 -1.395	 -1.925
  8.284	 -1.440	 -2.090
  8.288	 -1.315	 -2.205
  8.292	 -1.130	 -2.140
  8.296	 -0.850	 -1.920
  8.300	 -0.570	 -1.610
  8.304	 -0.360	 -1.310
  8.308	 -0.275	 -1.020
  8.312	 -0.215	 -0.760
  8.316	 -0.160	 -0.550
  8.320	 -0.120	 -0.420
  8.324	 -0.110	 -0.355
  8.328	 -0.105	 -0.280
  8.332	 -0.085	 -0.275
  8.336	 -0.090	 -0.250
  8.340	 -0.080	 -0.260
  8.344	 -0.065	 -0.260
  8.348	 -0.070	 -0.255
  8.352	 -0.100	 -0.235
  8.356	 -0.125	 -0.235
  8.360	 -0.125	 -0.240
  8.364	 -0.125	 -0.215
  8.368	 -0.130	 -0.220
  8.372	 -0.105	 -0.200
  8.376	 -0.115	 -0.205
  8.380	 -0.100	 -0.215
  8.384	 -0.110	 -0.220
  8.388	 -0.130	 -0.230
  8.392	 -0.135	 -0.240
  8.396	 -0.155	 -0.205
  8.400	 -0.185	 -0.205
  8.404	 -0.185	 -0.215
  8.408	 -0.180	 -0.225
  8.412	 -0.195	 -0.225
  8.416	 -0.185	 -0.205
  8.420	 -0.200	 -0.210
  8.424	 -0.210	 -0.240
  8.428	 -0.210	 -0.215
  8.432	 -0.260	 -0.205
  8.436	 -0.270	 -0.185
  8.440	 -0.290	 -0.215
  8.444	 -0.310	 -0.225
  8.448	 -0.320	 -0.225
  8.452	 -0.350	 -0.215
  8.456	 -0.385	 -0.230
  8.460	 -0.385	 -0.245
  8.464	 -0.405	 -0.245
  8.468	 -0.435	 -0.245
  8.472	 -0.460	 -0.250
  8.476	 -0.500	 -0.265
  8.480	 -0.535	 -0.275
  8.484	 -0.555	 -0.300
  8.488	 -0.585	 -0.290
  8.492	 -0.600	 -0.315
  8.496	 -0.630	 -0.345
  8.500	 -0.650	 -0.340
  8.504	 -0.680	 -0.345
  8.508	 -0.685	 -0.365
  8.512	 -0.730	 -0.380
  8.516	 -0.755	 -0.385
  8.520	 -0.760	 -0.440
  8.524	 -0.785	 -0.440
  8.528	 -0.820	 -0.455
  8.532	 -0.815	 -0.460
  8.536	 -0.820	 -0.480
  8.540	 -0.815	 -0.480
  8.544	 -0.790	 -0.520
  8.548	 -0.790	 -0.530
  8.552	 -0.730	 -0.560
  8.556	 -0.700	 -0.555
  8.560	 -0.670	 -0.550
  8.564	 -0.610	 -0.555
  8.568	 -0.595	 -0.555
  8.572	 -0.540	 -0.565
  8.576	 -0.475	 -0.560
  8.580	 -0.415	 -0.535
  8.584	 -0.360	 -0.505
  8.588	 -0.335	 -0.485
  8.592	 -0.275	 -0.450
  8.596	 -0.205	 -0.415
  8.600	 -0.155	 -0.400
  8.604	 -0.125	 -0.375
  8.608	 -0.095	 -0.345
  8.612	 -0.085	 -0.310
  8.616	 -0.055	 -0.280
  8.620	 -0.065	 -0.270
  8.624	 -0.055	 -0.255
  8.628	 -0.020	 -0.210
  8.632	  0.000	 -0.200
  8.636	  0.000	 -0.180
  8.640	  0.010	 -0.185
  8.644	  0.025	 -0.150
  8.648	  0.040	 -0.130
  8.652	  0.005	 -0.135
  8.656	  0.005	 -0.140
  8.660	  0.000	 -0.135
  8.664	 -0.010	 -0.150
  8.668	 -0.005	 -0.135
  8.672	 -0.005	 -0.135
  8.676	  0.000	 -0.135
  8.680	  0.005	 -0.120
  8.684	  0.035	 -0.115
  8.688	  0.035	 -0.105
  8.692	  0.015	 -0.090
  8.696	  0.010	 -0.095
  8.700	  0.000	 -0.115
  8.704	 -0.005	 -0.120
  8.708	 -0.010	 -0.115
  8.712	 -0.035	 -0.120
  8.716	 -0.020	 -0.140
  8.720	 -0.025	 -0.160
  8.724	 -0.040	 -0.160
  8.728	 -0.015	 -0.155
  8.732	 -0.020	 -0.165
  8.736	 -0.025	 -0.125
  8.740	 -0.025	 -0.155
  8.744	 -0.040	 -0.130
  8.748	 -0.045	 -0.130
  8.752	 -0.060	 -0.115
  8.756	 -0.070	 -0.150
  8.760	 -0.060	 -0.160
  8.764	 -0.065	 -0.155
  8.768	 -0.080	 -0.145
  8.772	 -0.040	 -0.160
  8.776	 -0.030	 -0.185
  8.780	 -0.045	 -0.160
  8.784	 -0.040	 -0.175
  8.788	 -0.050	 -0.165
  8.792	 -0.055	 -0.170
  8.796	 -0.075	 -0.180
  8.800	 -0.080	 -0.175
  8.804	 -0.085	 -0.160
  8.808	 -0.090	 -0.165
  8.812	 -0.065	 -0.170
  8.816	 -0.050	 -0.160
  8.820	 -0.050	 -0.175
  8.824	 -0.040	 -0.155
  8.828	 -0.045	 -0.150
  8.832	 -0.075	 -0.150
  8.836	 -0.090	 -0.170
  8.840	 -0.115	 -0.155
  8.844	 -0.100	 -0.170
  8.848	 -0.095	 -0.160
  8.852	 -0.085	 -0.185
  8.856	 -0.090	 -0.185
  8.860	 -0.085	 -0.170
  8.864	 -0.070	 -0.170
  8.868	 -0.060	 -0.175
  8.872	 -0.065	 -0.170
  8.876	 -0.075	 -0.165
  8.880	 -0.085	 -0.190
  8.884	 -0.105	 -0.180
  8.888	 -0.090	 -0.180
  8.892	 -0.095	 -0.185
  8.896	 -0.085	 -0.190
  8.900	 -0.090	 -0.165
  8.904	 -0.075	 -0.185
  8.908	 -0.075	 -0.170
  8.912	 -0.075	 -0.195
  8.916	 -0.070	 -0.175
  8.920	 -0.085	 -0.155
  8.924	 -0.085	 -0.145
  8.928	 -0.085	 -0.155
  8.932	 -0.100	 -0.160
  8.936	 -0.105	 -0.145
  8.940	 -0.110	 -0.170
  8.944	 -0.090	 -0.180
  8.948	 -0.075	 -0.160
  8.952	 -0.080	 -0.150
  8.956	 -0.050	 -0.175
  8.960	 -0.050	 -0.165
  8.964	 -0.040	 -0.180
  8.968	 -0.025	 -0.175
  8.972	 -0.020	 -0.160
  8.976	  0.025	 -0.100
  8.980	  0.025	 -0.070
  8.984	  0.035	 -0.090
  8.988	  0.055	 -0.065
  8.992	  0.085	 -0.065
  8.996	  0.085	 -0.045
  9.000	  0.085	 -0.085
  9.004	  0.030	 -0.080
  9.008	  0.035	 -0.105
  9.012	  0.065	 -0.125
  9.016	  0.020	 -0.205
  9.020	  0.000	 -0.215
  9.024	 -0.030	 -0.240
  9.028	 -0.060	 -0.215
  9.032	 -0.095	 -0.230
  9.036	 -0.100	 -0.190
  9.040	 -0.100	 -0.185
  9.044	 -0.120	 -0.165
  9.048	 -0.145	 -0.180
  9.052	 -0.160	 -0.170
  9.056	 -0.185	 -0.175
  9.060	 -0.190	 -0.165
  9.064	 -0.190	 -0.190
  9.068	 -0.190	 -0.205
  9.072	 -0.160	 -0.185
  9.076	 -0.100	 -0.195
  9.080	 -0.045	 -0.125
  9.084	  0.115	 -0.070
  9.088	  0.390	 -0.050
  9.092	  0.730	 -0.095
  9.096	  0.990	 -0.115
  9.100	  1.110	 -0.190
  9.104	  1.230	 -0.540
  9.108	  1.065	 -1.035
  9.112	  0.340	 -1.505
  9.116	 -0.630	 -1.840
  9.120	 -1.300	 -2.025
  9.124	 -1.550	 -2.220
  9.128	 -1.505	 -2.400
  9.132	 -1.320	 -2.400
  9.136	 -1.060	 -2.215
  9.140	 -0.775	 -1.915
  9.144	 -0.555	 -1.535
  9.148	 -0.430	 -1.150
  9.152	 -0.350	 -0.805
  9.156	 -0.310	 -0.545
  9.160	 -0.270	 -0.390
  9.164	 -0.270	 -0.255
  9.168	 -0.250	 -0.210
  9.172	 -0.260	 -0.195
  9.176	 -0.235	 -0.170
  9.180	 -0.235	 -0.170
  9.184	 -0.245	 -0.175
  9.188	 -0.260	 -0.160
  9.192	 -0.260	 -0.140
  9.196	 -0.275	 -0.150
  9.200	 -0.260	 -0.160
  9.204	 -0.295	 -0.145
  9.208	 -0.280	 -0.110
  9.212	 -0.290	 -0.140
  9.216	 -0.280	 -0.110
  9.220	 -0.290	 -0.100
  9.224	 -0.285	 -0.100
  9.228	 -0.285	 -0.100
  9.232	 -0.305	 -0.100
  9.236	 -0.305	 -0.105
  9.240	 -0.320	 -0.100
  9.244	 -0.355	 -0.090
  9.248	 -0.355	 -0.080
  9.252	 -0.360	 -0.070
  9.256	 -0.370	 -0.075
  9.260	 -0.380	 -0.060
  9.264	 -0.380	 -0.060
  9.268	 -0.375	 -0.060
  9.272	 -0.370	 -0.070
  9.276	 -0.380	 -0.090
  9.280	 -0.400	 -0.085
  9.284	 -0.445	 -0.070
  9.288	 -0.450	 -0.100
  9.292	 -0.490	 -0.080
  9.296	 -0.515	 -0.100
  9.300	 -0.545	 -0.120
  9.304	 -0.560	 -0.145
  9.308	 -0.570	 -0.155
  9.312	 -0.570	 -0.160
  9.316	 -0.605	 -0.160
  9.320	 -0.630	 -0.180
  9.324	 -0.665	 -0.190
  9.328	 -0.715	 -0.210
  9.332	 -0.745	 -0.200
  9.336	 -0.800	 -0.205
  9.340	 -0.810	 -0.245
  9.344	 -0.830	 -0.230
  9.348	 -0.845	 -0.275
  9.352	 -0.850	 -0.280
  9.356	 -0.890	 -0.290
  9.360	 -0.910	 -0.315
  9.364	 -0.920	 -0.305
  9.368	 -0.920	 -0.330
  9.372	 -0.960	 -0.345
  9.376	 -0.970	 -0.350
  9.380	 -0.975	 -0.350
  9.384	 -0.990	 -0.365
  9.388	 -0.995	 -0.360
  9.392	 -0.945	 -0.380
  9.396	 -0.890	 -0.380
  9.400	 -0.840	 -0.390
  9.404	 -0.815	 -0.390
  9.408	 -0.775	 -0.395
  9.412	 -0.715	 -0.380
  9.416	 -0.685	 -0.385
  9.420	 -0.640	 -0.370
  9.424	 -0.590	 -0.350
  9.428	 -0.500	 -0.330
  9.432	 -0.440	 -0.310
  9.436	 -0.380	 -0.295
  9.440	 -0.310	 -0.270
  9.444	 -0.265	 -0.250
  9.448	 -0.230	 -0.215
  9.452	 -0.195	 -0.195
  9.456	 -0.205	 -0.155
  9.460	 -0.220	 -0.120
  9.464	 -0.180	 -0.125
  9.468	 -0.180	 -0.105
  9.472	 -0.175	 -0.080
  9.476	 -0.160	 -0.075
  9.480	 -0.145	 -0.065
  9.484	 -0.115	 -0.030
  9.488	 -0.110	 -0.030
  9.492	 -0.125	 -0.035
  9.496	 -0.135	  0.015
  9.500	 -0.150	  0.000
  9.504	 -0.160	 -0.025
  9.508	 -0.160	 -0.015
  9.512	 -0.160	 -0.035
  9.516	 -0.140	 -0.030
  9.520	 -0.170	 -0.015
  9.524	 -0.175	  0.005
  9.528	 -0.145	 -0.005
  9.532	 -0.145	 -0.005
  9.536	 -0.150	 -0.035
  9.540	 -0.155	 -0.035
  9.544	 -0.160	 -0.020
  9.548	 -0.160	 -0.040
  9.552	 -0.180	 -0.040
  9.556	 -0.205	 -0.030
  9.560	 -0.190	 -0.025
  9.564	 -0.190	 -0.050
  9.568	 -0.190	 -0.040
  9.572	 -0.175	 -0.025
  9.576	 -0.165	 -0.055
  9.580	 -0.175	 -0.025
  9.584	 -0.175	 -0.035
  9.588	 -0.200	 -0.055
  9.592	 -0.185	 -0.040
  9.596	 -0.200	 -0.060
  9.600	 -0.200	 -0.080
  9.604	 -0.200	 -0.060
  9.608	 -0.205	 -0.040
  9.612	 -0.210	 -0.055
  9.616	 -0.205	 -0.050
  9.620	 -0.210	 -0.055
  9.624	 -0.200	 -0.060
  9.628	 -0.210	 -0.080
  9.632	 -0.225	 -0.065
  9.636	 -0.225	 -0.040
  9.640	 -0.250	 -0.070
  9.644	 -0.255	 -0.075
  9.648	 -0.215	 -0.075
  9.652	 -0.220	 -0.080
  9.656	 -0.230	 -0.085
  9.660	 -0.200	 -0.080
  9.664	 -0.220	 -0.070
  9.668	 -0.210	 -0.070
  9.672	 -0.210	 -0.090
  9.676	 -0.210	 -0.070
  9.680	 -0.245	 -0.080
  9.684	 -0.230	 -0.080
  9.688	 -0.225	 -0.095
  9.692	 -0.240	 -0.070
  9.696	 -0.220	 -0.085
  9.700	 -0.220	 -0.080
  9.704	 -0.200	 -0.070
  9.708	 -0.215	 -0.075
  9.712	 -0.220	 -0.080
  9.716	 -0.230	 -0.080
  9.720	 -0.215	 -0.100
  9.724	 -0.220	 -0.095
  9.728	 -0.250	 -0.080
  9.732	 -0.255	 -0.080
  9.736	 -0.240	 -0.070
  9.740	 -0.230	 -0.055
  9.744	 -0.220	 -0.080
  9.748	 -0.210	 -0.080
  9.752	 -0.210	 -0.080
  9.756	 -0.230	 -0.085
  9.760	 -0.230	 -0.110
  9.764	 -0.230	 -0.095
  9.768	 -0.240	 -0.075
  9.772	 -0.245	 -0.075
  9.776	 -0.220	 -0.060
  9.780	 -0.235	 -0.080
  9.784	 -0.220	 -0.090
  9.788	 -0.200	 -0.080
  9.792	 -0.170	 -0.050
  9.796	 -0.135	 -0.045
  9.800	 -0.085	 -0.010
  9.804	 -0.080	  0.020
  9.808	 -0.100	  0.020
  9.812	 -0.070	  0.020
  9.816	 -0.090	  0.025
  9.820	 -0.075	  0.010
  9.824	 -0.060	  0.035
  9.828	 -0.080	  0.035
  9.832	 -0.080	  0.010
  9.836	 -0.040	  0.000
  9.840	 -0.035	 -0.040
  9.844	 -0.070	 -0.100
  9.848	 -0.070	 -0.125
  9.852	 -0.110	 -0.125
  9.856	 -0.160	 -0.125
  9.860	 -0.180	 -0.125
  9.864	 -0.220	 -0.080
  9.868	 -0.255	 -0.080
  9.872	 -0.260	 -0.080
  9.876	 -0.270	 -0.100
  9.880	 -0.280	 -0.080
  9.884	 -0.255	 -0.095
  9.888	 -0.250	 -0.080
  9.892	 -0.230	 -0.090
  9.896	 -0.230	 -0.120
  9.900	 -0.210	 -0.080
  9.904	 -0.155	 -0.045
  9.908	 -0.090	  0.000
  9.912	  0.065	  0.020
  9.916	  0.380	  0.030
  9.920	  0.730	 -0.010
  9.924	  0.950	 -0.035
  9.928	  1.115	 -0.155
  9.932	  1.205	 -0.565
  9.936	  0.840	 -1.090
  9.940	 -0.095	 -1.460
  9.944	 -0.970	 -1.755
  9.948	 -1.500	 -1.960
  9.952	 -1.595	 -2.155
  9.956	 -1.520	 -2.270
  9.960	 -1.305	 -2.165
  9.964	 -0.990	 -1.920
  9.968	 -0.715	 -1.580
  9.972	 -0.535	 -1.210
  9.976	 -0.405	 -0.820
  9.980	 -0.350	 -0.525
  9.984	 -0.315	 -0.320
  9.988	 -0.320	 -0.150
  9.992	 -0.325	 -0.105
  9.996	 -0.325	 -0.065
 10.000	 -0.325	 -0.045
 10.004	 -0.325	  0.000
 10.008	 -0.300	 -0.030
 10.012	 -0.280	 -0.020
 10.016	 -0.280	  0.005
 10.020	 -0.270	 -0.015
 10.024	 -0.290	  0.000
 10.028	 -0.295	  0.020
 10.032	 -0.310	  0.040
 10.036	 -0.320	  0.020
 10.040	 -0.320	  0.030
 10.044	 -0.355	  0.020
 10.048	 -0.370	  0.045
 10.052	 -0.365	  0.040
 10.056	 -0.340	  0.015
 10.060	 -0.330	  0.035
 10.064	 -0.330	  0.020
 10.068	 -0.335	  0.010
 10.072	 -0.355	  0.015
 10.076	 -0.365	  0.050
 10.080	 -0.390	  0.025
 10.084	 -0.385	  0.045
 10.088	 -0.390	  0.070
 10.092	 -0.380	  0.065
 10.096	 -0.410	  0.050
 10.100	 -0.425	  0.040
 10.104	 -0.440	  0.020
 10.108	 -0.450	  0.005
 10.112	 -0.450	  0.005
 10.116	 -0.465	  0.005
 10.120	 -0.485	 -0.010
 10.124	 -0.540	 -0.020
 10.128	 -0.565	  0.000
 10.132	 -0.595	 -0.015
 10.136	 -0.620	 -0.015
 10.140	 -0.660	 -0.035
 10.144	 -0.660	 -0.045
 10.148	 -0.660	 -0.040
 10.152	 -0.670	 -0.035
 10.156	 -0.715	 -0.060
 10.160	 -0.750	 -0.070
 10.164	 -0.780	 -0.080
 10.168	 -0.825	 -0.100
 10.172	 -0.855	 -0.110
 10.176	 -0.870	 -0.130
 10.180	 -0.900	 -0.160
 10.184	 -0.900	 -0.180
 10.188	 -0.905	 -0.205
 10.192	 -0.900	 -0.190
 10.196	 -0.930	 -0.195
 10.200	 -0.930	 -0.200
 10.204	 -0.940	 -0.210
 10.208	 -0.960	 -0.220
 10.212	 -0.940	 -0.240
 10.216	 -0.910	 -0.255
 10.220	 -0.885	 -0.260
 10.224	 -0.850	 -0.275
 10.228	 -0.800	 -0.290
 10.232	 -0.730	 -0.280
 10.236	 -0.660	 -0.300
 10.240	 -0.585	 -0.270
 10.244	 -0.525	 -0.285
 10.248	 -0.480	 -0.265
 10.252	 -0.420	 -0.245
 10.256	 -0.375	 -0.235
 10.260	 -0.340	 -0.190
 10.264	 -0.295	 -0.160
 10.268	 -0.245	 -0.145
 10.272	 -0.205	 -0.100
 10.276	 -0.190	 -0.075
 10.280	 -0.150	 -0.090
 10.284	 -0.125	 -0.035
 10.288	 -0.130	 -0.030
 10.292	 -0.105	  0.010
 10.296	 -0.100	  0.005
 10.300	 -0.100	  0.020
 10.304	 -0.105	  0.040
 10.308	 -0.120	  0.040
 10.312	 -0.130	  0.040
 10.316	 -0.130	  0.060
 10.320	 -0.115	  0.040
 10.324	 -0.120	  0.065
 10.328	 -0.095	  0.060
 10.332	 -0.090	  0.065
 10.336	 -0.090	  0.060
 10.340	 -0.090	  0.070
 10.344	 -0.120	  0.045
 10.348	 -0.135	  0.065
 10.352	 -0.140	  0.065
 10.356	 -0.140	  0.045
 10.360	 -0.130	  0.060
 10.364	 -0.130	  0.080
 10.368	 -0.140	  0.080
 10.372	 -0.140	  0.060
 10.376	 -0.120	  0.065
 10.380	 -0.140	  0.050
 10.384	 -0.135	  0.030
 10.388	 -0.150	  0.035
 10.392	 -0.145	  0.040
 10.396	 -0.160	  0.035
 10.400	 -0.170	  0.040
 10.404	 -0.175	  0.030
 10.408	 -0.190	  0.020
 10.412	 -0.190	  0.015
 10.416	 -0.170	  0.020
 10.420	 -0.160	  0.015
 10.424	 -0.170	  0.015
 10.428	 -0.175	  0.010
 10.432	 -0.180	 -0.010
 10.436	 -0.195	  0.010
 10.440	 -0.205	  0.000
 10.444	 -0.230	  0.000
 10.448	 -0.200	 -0.010
 10.452	 -0.205	 -0.020
 10.456	 -0.205	  0.005
 10.460	 -0.210	 -0.005
 10.464	 -0.195	 -0.005
 10.468	 -0.190	 -0.025
 10.472	 -0.170	  0.000
 10.476	 -0.190	 -0.020
 10.480	 -0.215	 -0.025
 10.484	 -0.220	 -0.020
 10.488	 -0.205	 -0.015
 10.492	 -0.210	 -0.020
 10.496	 -0.200	 -0.010
 10.500	 -0.195	 -0.010
 10.504	 -0.185	 -0.010
 10.508	 -0.195	  0.005
 10.512	 -0.185	 -0.020
 10.516	 -0.175	 -0.030
 10.520	 -0.225	 -0.010
 10.524	 -0.205	 -0.005
 10.528	 -0.210	 -0.035
 10.532	 -0.215	 -0.020
 10.536	 -0.230	 -0.020
 10.540	 -0.230	 -0.055
 10.544	 -0.225	 -0.050
 10.548	 -0.200	 -0.025
 10.552	 -0.195	 -0.035
 10.556	 -0.175	 -0.015
 10.560	 -0.180	 -0.040
 10.564	 -0.165	 -0.020
 10.568	 -0.160	 -0.025
 10.572	 -0.190	 -0.030
 10.576	 -0.190	 -0.035
 10.580	 -0.210	 -0.060
 10.584	 -0.210	 -0.065
 10.588	 -0.210	 -0.040
 10.592	 -0.185	 -0.020
 10.596	 -0.180	 -0.055
 10.600	 -0.180	 -0.035
 10.604	 -0.170	 -0.030
 10.608	 -0.160	 -0.050
 10.612	 -0.160	 -0.045
 10.616	 -0.130	 -0.040
 10.620	 -0.135	 -0.025
 10.624	 -0.095	  0.000
 10.628	 -0.060	  0.040
 10.632	 -0.055	  0.070
 10.636	 -0.040	  0.065
 10.640	 -0.030	  0.080
 10.644	 -0.005	  0.085
 10.648	  0.010	  0.075
 10.652	 -0.015	  0.060
 10.656	 -0.035	  0.050
 10.660	 -0.025	  0.010
 10.664	 -0.040	 -0.045
 10.668	 -0.085	 -0.075
 10.672	 -0.120	 -0.090
 10.676	 -0.120	 -0.080
 10.680	 -0.105	 -0.105
 10.684	 -0.120	 -0.065
 10.688	 -0.150	 -0.050
 10.692	 -0.165	 -0.045
 10.696	 -0.180	 -0.050
 10.700	 -0.220	 -0.055
 10.704	 -0.250	 -0.040
 10.708	 -0.245	 -0.055
 10.712	 -0.245	 -0.055
 10.716	 -0.230	 -0.055
 10.720	 -0.225	 -0.070
 10.724	 -0.175	 -0.080
 10.728	 -0.105	 -0.045
 10.732	 -0.050	  0.035
 10.736	  0.090	  0.075
 10.740	  0.375	  0.090
 10.744	  0.700	  0.055
 10.748	  0.950	  0.025
 10.752	  1.130	 -0.080
 10.756	  1.225	 -0.425
 10.760	  0.940	 -0.835
 10.764	  0.030	 -1.235
 10.768	 -0.885	 -1.545
 10.772	 -1.465	 -1.795
 10.776	 -1.620	 -2.010
 10.780	 -1.550	 -2.165
 10.784	 -1.370	 -2.125
 10.788	 -1.085	 -1.870
 10.792	 -0.805	 -1.560
 10.796	 -0.580	 -1.210
 10.800	 -0.465	 -0.880
 10.804	 -0.390	 -0.550
 10.808	 -0.310	 -0.300
 10.812	 -0.300	 -0.165
 10.816	 -0.275	 -0.080
 10.820	 -0.245	 -0.010
 10.824	 -0.220	 -0.005
 10.828	 -0.210	  0.000
 10.832	 -0.220	  0.015
 10.836	 -0.250	  0.030
 10.840	 -0.260	  0.060
 10.844	 -0.275	  0.050
 10.848	 -0.240	  0.065
 10.852	 -0.275	  0.060
 10.856	 -0.280	  0.075
 10.860	 -0.260	  0.090
 10.864	 -0.260	  0.095
 10.868	 -0.270	  0.075
 10.872	 -0.255	  0.095
 10.876	 -0.275	  0.125
 10.880	 -0.280	  0.130
 10.884	 -0.290	  0.120
 10.888	 -0.275	  0.135
 10.892	 -0.275	  0.145
 10.896	 -0.295	  0.150
 10.900	 -0.305	  0.140
 10.904	 -0.305	  0.125
 10.908	 -0.300	  0.135
 10.912	 -0.320	  0.120
 10.916	 -0.285	  0.125
 10.920	 -0.280	  0.105
 10.924	 -0.320	  0.085
 10.928	 -0.365	  0.085
 10.932	 -0.380	  0.085
 10.936	 -0.415	  0.100
 10.940	 -0.400	  0.080
 10.944	 -0.415	  0.075
 10.948	 -0.440	  0.065
 10.952	 -0.445	  0.085
 10.956	 -0.470	  0.085
 10.960	 -0.515	  0.065
 10.964	 -0.520	  0.055
 10.968	 -0.545	  0.030
 10.972	 -0.585	  0.025
 10.976	 -0.640	  0.035
 10.980	 -0.665	  0.010
 10.984	 -0.700	  0.000
 10.988	 -0.720	  0.000
 10.992	 -0.745	 -0.025
 10.996	 -0.720	 -0.045
 11.000	 -0.725	 -0.035
 11.004	 -0.750	 -0.040
 11.008	 -0.785	 -0.060
 11.012	 -0.795	 -0.095
 11.016	 -0.840	 -0.115
 11.020	 -0.835	 -0.100
 11.024	 -0.825	 -0.125
 11.028	 -0.840	 -0.150
 11.032	 -0.835	 -0.185
 11.036	 -0.770	 -0.145
 11.040	 -0.695	 -0.145
 11.044	 -0.640	 -0.160
 11.048	 -0.620	 -0.160
 11.052	 -0.555	 -0.140
 11.056	 -0.510	 -0.100
 11.060	 -0.445	 -0.090
 11.064	 -0.415	 -0.095
 11.068	 -0.330	 -0.100
 11.072	 -0.305	 -0.080
 11.076	 -0.275	 -0.060
 11.080	 -0.245	 -0.040
 11.084	 -0.180	  0.000
 11.088	 -0.140	  0.010
 11.092	 -0.095	  0.025
 11.096	 -0.070	  0.050
 11.100	 -0.090	  0.105
 11.104	 -0.080	  0.090
 11.108	 -0.075	  0.065
 11.112	 -0.095	  0.085
 11.116	 -0.140	  0.085
 11.120	 -0.110	  0.085
 11.124	 -0.115	  0.085
 11.128	 -0.090	  0.075
 11.132	 -0.080	  0.040
 11.136	 -0.100	  0.055
 11.140	 -0.115	  0.035
 11.144	 -0.105	  0.055
 11.148	 -0.100	  0.035
 11.152	 -0.135	  0.060
 11.156	 -0.120	  0.060
 11.160	 -0.120	  0.045
 11.164	 -0.155	  0.045
 11.168	 -0.160	  0.030
 11.172	 -0.160	  0.050
 11.176	 -0.130	  0.065
 11.180	 -0.120	  0.065
 11.184	 -0.135	  0.045
 11.188	 -0.125	  0.040
 11.192	 -0.145	  0.075
 11.196	 -0.150	  0.065
 11.200	 -0.165	  0.065
 11.204	 -0.175	  0.080
 11.208	 -0.175	  0.030
 11.212	 -0.170	  0.035
 11.216	 -0.175	  0.005
 11.220	 -0.155	  0.035
 11.224	 -0.160	  0.005
 11.228	 -0.170	  0.015
 11.232	 -0.160	  0.025
 11.236	 -0.175	  0.025
 11.240	 -0.170	  0.010
 11.244	 -0.210	  0.015
 11.248	 -0.195	 -0.010
 11.252	 -0.185	  0.015
 11.256	 -0.160	  0.015
 11.260	 -0.170	  0.005
 11.264	 -0.175	  0.020
 11.268	 -0.145	  0.005
 11.272	 -0.100	  0.025
 11.276	 -0.055	  0.060
 11.280	 -0.005	  0.120
 11.284	  0.195	  0.160
 11.288	  0.520	  0.125
 11.292	  0.885	  0.075
 11.296	  1.135	  0.030
 11.300	  1.330	 -0.155
 11.304	  1.270	 -0.510
 11.308	  0.615	 -0.870
 11.312	 -0.400	 -1.190
 11.316	 -1.200	 -1.505
 11.320	 -1.520	 -1.710
 11.324	 -1.435	 -1.905
 11.328	 -1.265	 -1.950
 11.332	 -0.980	 -1.840
 11.336	 -0.660	 -1.525
 11.340	 -0.390	 -1.095
 11.344	 -0.225	 -0.765
 11.348	 -0.130	 -0.475
 11.352	 -0.080	 -0.235
 11.356	 -0.060	 -0.070
 11.360	 -0.105	  0.020
 11.364	 -0.090	  0.105
 11.368	 -0.135	  0.145
 11.372	 -0.120	  0.160
 11.376	 -0.105	  0.155
 11.380	 -0.100	  0.135
 11.384	 -0.095	  0.150
 11.388	 -0.110	  0.160
 11.392	 -0.095	  0.180
 11.396	 -0.095	  0.170
 11.400	 -0.115	  0.155
 11.404	 -0.145	  0.170
 11.408	 -0.135	  0.160
 11.412	 -0.150	  0.120
 11.416	 -0.200	  0.105
 11.420	 -0.240	  0.075
 11.424	 -0.250	  0.065
 11.428	 -0.245	  0.050
 11.432	 -0.235	  0.070
 11.436	 -0.245	  0.080
 11.440	 -0.260	  0.050
 11.444	 -0.240	  0.020
 11.448	 -0.225	  0.015
 11.452	 -0.220	  0.005
 11.456	 -0.230	  0.040
 11.460	 -0.280	  0.060
 11.464	 -0.300	  0.050
 11.468	 -0.310	  0.035
 11.472	 -0.345	  0.030
 11.476	 -0.350	  0.015
 11.480	 -0.370	  0.010
 11.484	 -0.390	  0.030
 11.488	 -0.390	  0.030
 11.492	 -0.405	  0.040
 11.496	 -0.390	  0.025
 11.500	 -0.440	  0.005
 11.504	 -0.435	  0.025
 11.508	 -0.475	  0.020
 11.512	 -0.525	  0.000
 11.516	 -0.565	 -0.015
 11.520	 -0.585	  0.005
 11.524	 -0.580	  0.000
 11.528	 -0.590	 -0.010
 11.532	 -0.620	 -0.020
 11.536	 -0.620	 -0.050
 11.540	 -0.615	 -0.045
 11.544	 -0.610	 -0.035
 11.548	 -0.660	 -0.060
 11.552	 -0.665	 -0.075
 11.556	 -0.630	 -0.070
 11.560	 -0.610	 -0.065
 11.564	 -0.550	 -0.070
 11.568	 -0.480	 -0.080
 11.572	 -0.420	 -0.065
 11.576	 -0.310	 -0.020
 11.580	 -0.225	  0.000
 11.584	 -0.175	  0.000
 11.588	 -0.090	  0.005
 11.592	 -0.030	  0.020
 11.596	 -0.045	  0.045
 11.600	 -0.030	  0.050
 11.604	  0.010	  0.070
 11.608	  0.035	  0.065
 11.612	  0.035	  0.085
 11.616	  0.060	  0.135
 11.620	  0.075	  0.145
 11.624	  0.070	  0.130
 11.628	  0.090	  0.170
 11.632	  0.090	  0.200
 11.636	  0.065	  0.195
 11.640	  0.040	  0.220
 11.644	  0.005	  0.175
 11.648	 -0.020	  0.125
 11.652	 -0.050	  0.150
 11.656	 -0.060	  0.120
 11.660	 -0.055	  0.115
 11.664	 -0.085	  0.115
 11.668	 -0.085	  0.100
 11.672	 -0.105	  0.120
 11.676	 -0.100	  0.120
 11.680	 -0.120	  0.095
 11.684	 -0.160	  0.105
 11.688	 -0.180	  0.090
 11.692	 -0.170	  0.090
 11.696	 -0.185	  0.075
 11.700	 -0.185	  0.045
 11.704	 -0.185	  0.055
 11.708	 -0.180	  0.045
 11.712	 -0.180	  0.025
 11.716	 -0.200	  0.025
 11.720	 -0.210	  0.025
 11.724	 -0.220	  0.015
 11.728	 -0.215	  0.030
 11.732	 -0.215	  0.030
 11.736	 -0.230	  0.025
 11.740	 -0.250	  0.005
 11.744	 -0.260	  0.040
 11.748	 -0.240	  0.010
 11.752	 -0.250	  0.030
 11.756	 -0.235	  0.030
 11.760	 -0.230	  0.035
 11.764	 -0.255	  0.035
 11.768	 -0.285	  0.035
 11.772	 -0.310	  0.025
 11.776	 -0.320	  0.030
 11.780	 -0.330	  0.035
 11.784	 -0.320	  0.030
 11.788	 -0.300	  0.020
 11.792	 -0.285	  0.000
 11.796	 -0.255	  0.030
 11.800	 -0.215	  0.060
 11.804	 -0.185	  0.100
 11.808	 -0.160	  0.115
 11.812	 -0.115	  0.140
 11.816	 -0.010	  0.155
 11.820	  0.075	  0.185
 11.824	  0.235	  0.265
 11.828	  0.525	  0.310
 11.832	  0.900	  0.295
 11.836	  1.160	  0.255
 11.840	  1.340	  0.160
 11.844	  1.355	 -0.070
 11.848	  0.890	 -0.445
 11.852	 -0.095	 -0.810
 11.856	 -0.990	 -1.145
 11.860	 -1.435	 -1.385
 11.864	 -1.515	 -1.615
 11.868	 -1.395	 -1.810
 11.872	 -1.170	 -1.780
 11.876	 -0.855	 -1.565
 11.880	 -0.580	 -1.235
 11.884	 -0.395	 -0.900
 11.888	 -0.300	 -0.630
 11.892	 -0.245	 -0.405
 11.896	 -0.205	 -0.195
 11.900	 -0.170	 -0.080
 11.904	 -0.190	  0.000
 11.908	 -0.190	  0.010
 11.912	 -0.205	  0.040
 11.916	 -0.225	  0.040
 11.920	 -0.230	  0.045
 11.924	 -0.230	  0.075
 11.928	 -0.240	  0.040
 11.932	 -0.215	  0.050
 11.936	 -0.215	  0.040
 11.940	 -0.210	  0.065
 11.944	 -0.240	  0.055
 11.948	 -0.235	  0.075
 11.952	 -0.245	  0.055
 11.956	 -0.260	  0.055
 11.960	 -0.265	  0.055
 11.964	 -0.275	  0.080
 11.968	 -0.280	  0.080
 11.972	 -0.270	  0.075
 11.976	 -0.270	  0.085
 11.980	 -0.275	  0.100
 11.984	 -0.280	  0.100
 11.988	 -0.290	  0.080
 11.992	 -0.330	  0.115
 11.996	 -0.355	  0.080
 12.000	 -0.385	  0.075
 12.004	 -0.415	  0.080
 12.008	 -0.460	  0.100
 12.012	 -0.480	  0.100
 12.016	 -0.505	  0.095
 12.020	 -0.520	  0.060
 12.024	 -0.575	  0.055
 12.028	 -0.595	  0.060
 12.032	 -0.620	  0.065
 12.036	 -0.630	  0.060
 12.040	 -0.660	  0.040
 12.044	 -0.680	  0.065
 12.048	 -0.645	  0.050
 12.052	 -0.620	  0.075
 12.056	 -0.605	  0.070
 12.060	 -0.590	  0.100
 12.064	 -0.580	  0.105
 12.068	 -0.570	  0.145
 12.072	 -0.600	  0.170
 12.076	 -0.615	  0.140
 12.080	 -0.590	  0.105
 12.084	 -0.615	  0.070
 12.088	 -0.590	  0.040
 12.092	 -0.575	  0.075
 12.096	 -0.520	  0.110
 12.100	 -0.535	  0.125
 12.104	 -0.520	  0.145
 12.108	 -0.490	  0.145
 12.112	 -0.430	  0.135
 12.116	 -0.390	  0.115
 12.120	 -0.350	  0.055
 12.124	 -0.350	  0.040
 12.128	 -0.320	  0.060
 12.132	 -0.265	  0.030
 12.136	 -0.215	  0.000
 12.140	 -0.190	  0.020
 12.144	 -0.185	  0.015
 12.148	 -0.155	  0.055
 12.152	 -0.130	  0.050
 12.156	 -0.075	  0.030
 12.160	 -0.055	  0.030
 12.164	 -0.050	  0.045
 12.168	 -0.035	  0.060
 12.172	 -0.050	  0.075
 12.176	 -0.045	  0.110
 12.180	 -0.060	  0.075
 12.184	 -0.070	  0.080
 12.188	 -0.070	  0.105
 12.192	 -0.080	  0.105
 12.196	 -0.055	  0.105
 12.200	 -0.050	  0.110
 12.204	 -0.060	  0.100
 12.208	 -0.070	  0.110
 12.212	 -0.075	  0.120
 12.216	 -0.095	  0.125
 12.220	 -0.100	  0.120
 12.224	 -0.125	  0.100
 12.228	 -0.125	  0.105
 12.232	 -0.120	  0.100
 12.236	 -0.120	  0.110
 12.240	 -0.140	  0.085
 12.244	 -0.140	  0.060
 12.248	 -0.175	  0.065
 12.252	 -0.185	  0.090
 12.256	 -0.210	  0.050
 12.260	 -0.225	  0.085
 12.264	 -0.255	  0.055
 12.268	 -0.275	  0.045
 12.272	 -0.295	  0.045
 12.276	 -0.300	  0.040
 12.280	 -0.275	  0.015
 12.284	 -0.250	  0.055
 12.288	 -0.265	  0.055
 12.292	 -0.265	  0.045
 12.296	 -0.265	  0.090
 12.300	 -0.250	  0.080
 12.304	 -0.190	  0.090
 12.308	 -0.125	  0.085
 12.312	 -0.060	  0.115
 12.316	  0.070	  0.130
 12.320	  0.275	  0.135
 12.324	  0.510	  0.095
 12.328	  0.730	  0.045
 12.332	  0.910	 -0.110
 12.336	  1.060	 -0.610
 12.340	  0.825	 -1.190
 12.344	 -0.040	 -1.615
 12.348	 -1.035	 -1.880
 12.352	 -1.590	 -2.070
 12.356	 -1.670	 -2.360
 12.360	 -1.425	 -2.450
 12.364	 -0.995	 -2.330
 12.368	 -0.630	 -1.980
 12.372	 -0.400	 -1.475
 12.376	 -0.260	 -0.945
 12.380	 -0.190	 -0.575
 12.384	 -0.130	 -0.305
 12.388	 -0.160	 -0.090
 12.392	 -0.175	  0.020
 12.396	 -0.200	  0.045
 12.400	 -0.170	  0.045
 12.404	 -0.180	  0.065
 12.408	 -0.190	  0.070
 12.412	 -0.195	  0.065
 12.416	 -0.185	  0.070
 12.420	 -0.175	  0.085
 12.424	 -0.160	  0.080
 12.428	 -0.175	  0.075
 12.432	 -0.170	  0.080
 12.436	 -0.180	  0.065
 12.440	 -0.210	  0.095
 12.444	 -0.240	  0.085
 12.448	 -0.220	  0.090
 12.452	 -0.235	  0.080
 12.456	 -0.225	  0.100
 12.460	 -0.225	  0.110
 12.464	 -0.240	  0.115
 12.468	 -0.235	  0.115
 12.472	 -0.260	  0.120
 12.476	 -0.285	  0.125
 12.480	 -0.335	  0.110
 12.484	 -0.350	  0.115
 12.488	 -0.390	  0.150
 12.492	 -0.445	  0.155
 12.496	 -0.475	  0.140
 12.500	 -0.490	  0.145
 12.504	 -0.505	  0.145
 12.508	 -0.500	  0.135
 12.512	 -0.510	  0.140
 12.516	 -0.525	  0.130
 12.520	 -0.535	  0.140
 12.524	 -0.570	  0.140
 12.528	 -0.600	  0.165
 12.532	 -0.625	  0.165
 12.536	 -0.640	  0.160
 12.540	 -0.640	  0.165
 12.544	 -0.635	  0.155
 12.548	 -0.580	  0.135
 12.552	 -0.545	  0.135
 12.556	 -0.560	  0.170
 12.560	 -0.595	  0.180
 12.564	 -0.595	  0.210
 12.568	 -0.630	  0.210
 12.572	 -0.635	  0.215
 12.576	 -0.640	  0.195
 12.580	 -0.655	  0.190
 12.584	 -0.665	  0.170
 12.588	 -0.665	  0.155
 12.592	 -0.640	  0.140
 12.596	 -0.600	  0.170
 12.600	 -0.560	  0.115
 12.604	 -0.510	  0.105
 12.608	 -0.480	  0.135
 12.612	 -0.445	  0.165
 12.616	 -0.410	  0.150
 12.620	 -0.360	  0.125
 12.624	 -0.285	  0.120
 12.628	 -0.240	  0.110
 12.632	 -0.180	  0.120
 12.636	 -0.135	  0.140
 12.640	 -0.100	  0.135
 12.644	 -0.065	  0.165
 12.648	 -0.060	  0.150
 12.652	 -0.035	  0.150
 12.656	 -0.040	  0.160
 12.660	 -0.065	  0.150
 12.664	 -0.050	  0.160
 12.668	 -0.070	  0.155
 12.672	 -0.085	  0.160
 12.676	 -0.115	  0.150
 12.680	 -0.065	  0.145
 12.684	 -0.075	  0.140
 12.688	 -0.080	  0.145
 12.692	 -0.085	  0.145
 12.696	 -0.125	  0.150
 12.700	 -0.115	  0.135
 12.704	 -0.120	  0.130
 12.708	 -0.145	  0.140
 12.712	 -0.105	  0.155
 12.716	 -0.030	  0.140
 12.720	  0.085	  0.150
 12.724	  0.230	  0.195
 12.728	  0.490	  0.250
 12.732	  0.735	  0.165
 12.736	  0.990	  0.080
 12.740	  1.180	  0.010
 12.744	  1.345	 -0.350
 12.748	  0.995	 -0.915
 12.752	 -0.065	 -1.355
 12.756	 -1.100	 -1.745
 12.760	 -1.475	 -2.035
 12.764	 -1.470	 -2.210
 12.768	 -1.295	 -2.325
 12.772	 -0.955	 -2.285
 12.776	 -0.590	 -1.990
 12.780	 -0.320	 -1.515
 12.784	 -0.200	 -0.990
 12.788	 -0.110	 -0.520
 12.792	 -0.090	 -0.185
 12.796	 -0.075	  0.020
 12.800	 -0.080	  0.150
 12.804	 -0.095	  0.215
 12.808	 -0.105	  0.245
 12.812	 -0.095	  0.220
 12.816	 -0.090	  0.190
 12.820	 -0.095	  0.190
 12.824	 -0.095	  0.190
 12.828	 -0.075	  0.180
 12.832	 -0.060	  0.180
 12.836	 -0.110	  0.210
 12.840	 -0.145	  0.215
 12.844	 -0.160	  0.195
 12.848	 -0.190	  0.205
 12.852	 -0.195	  0.185
 12.856	 -0.185	  0.180
 12.860	 -0.165	  0.185
 12.864	 -0.170	  0.165
 12.868	 -0.160	  0.160
 12.872	 -0.190	  0.150
 12.876	 -0.210	  0.150
 12.880	 -0.205	  0.165
 12.884	 -0.235	  0.185
 12.888	 -0.260	  0.175
 12.892	 -0.275	  0.140
 12.896	 -0.260	  0.170
 12.900	 -0.290	  0.160
 12.904	 -0.270	  0.180
 12.908	 -0.295	  0.165
 12.912	 -0.325	  0.185
 12.916	 -0.355	  0.155
 12.920	 -0.360	  0.140
 12.924	 -0.420	  0.140
 12.928	 -0.485	  0.130
 12.932	 -0.525	  0.110
 12.936	 -0.535	  0.120
 12.940	 -0.560	  0.105
 12.944	 -0.555	  0.115
 12.948	 -0.560	  0.100
 12.952	 -0.575	  0.120
 12.956	 -0.580	  0.080
 12.960	 -0.575	  0.100
 12.964	 -0.580	  0.095
 12.968	 -0.570	  0.105
 12.972	 -0.580	  0.105
 12.976	 -0.565	  0.135
 12.980	 -0.535	  0.175
 12.984	 -0.510	  0.215
 12.988	 -0.440	  0.210
 12.992	 -0.405	  0.175
 12.996	 -0.325	  0.200
 13.000	 -0.290	  0.205
 13.004	 -0.245	  0.215
 13.008	 -0.200	  0.235
 13.012	 -0.145	  0.205
 13.016	 -0.085	  0.230
 13.020	 -0.035	  0.245
 13.024	  0.050	  0.270
 13.028	  0.085	  0.300
 13.032	  0.080	  0.315
 13.036	  0.085	  0.340
 13.040	  0.110	  0.365
 13.044	  0.110	  0.360
 13.048	  0.110	  0.330
 13.052	  0.090	  0.325
 13.056	  0.055	  0.300
 13.060	  0.035	  0.285
 13.064	  0.015	  0.280
 13.068	  0.010	  0.260
 13.072	 -0.020	  0.230
 13.076	 -0.010	  0.250
 13.080	 -0.030	  0.255
 13.084	 -0.060	  0.215
 13.088	 -0.050	  0.200
 13.092	 -0.060	  0.160
 13.096	 -0.060	  0.140
 13.100	 -0.090	  0.145
 13.104	 -0.085	  0.165
 13.108	 -0.075	  0.150
 13.112	 -0.115	  0.140
 13.116	 -0.140	  0.170
 13.120	 -0.120	  0.140
 13.124	 -0.155	  0.140
 13.128	 -0.145	  0.135
 13.132	 -0.130	  0.100
 13.136	 -0.110	  0.120
 13.140	 -0.110	  0.115
 13.144	 -0.110	  0.130
 13.148	 -0.120	  0.140
 13.152	 -0.125	  0.115
 13.156	 -0.150	  0.135
 13.160	 -0.120	  0.120
 13.164	 -0.145	  0.120
 13.168	 -0.140	  0.090
 13.172	 -0.150	  0.095
 13.176	 -0.140	  0.085
 13.180	 -0.110	  0.110
 13.184	 -0.100	  0.105
 13.188	 -0.110	  0.120
 13.192	 -0.045	  0.165
 13.196	  0.175	  0.135
 13.200	  0.505	  0.075
 13.204	  0.750	 -0.025
 13.208	  0.905	 -0.165
 13.212	  0.875	 -0.465
 13.216	  0.300	 -0.895
 13.220	 -0.710	 -1.345
 13.224	 -1.495	 -1.700
 13.228	 -1.855	 -2.025
 13.232	 -1.810	 -2.270
 13.236	 -1.575	 -2.385
 13.240	 -1.175	 -2.205
 13.244	 -0.785	 -1.930
 13.248	 -0.480	 -1.480
 13.252	 -0.325	 -1.025
 13.256	 -0.205	 -0.660
 13.260	 -0.120	 -0.335
 13.264	 -0.100	 -0.110
 13.268	 -0.110	  0.075
 13.272	 -0.105	  0.215
 13.276	 -0.110	  0.245
 13.280	 -0.120	  0.240
 13.284	 -0.125	  0.190
 13.288	 -0.155	  0.215
 13.292	 -0.160	  0.210
 13.296	 -0.175	  0.215
 13.300	 -0.180	  0.180
 13.304	 -0.175	  0.200
 13.308	 -0.175	  0.205
 13.312	 -0.175	  0.200
 13.316	 -0.180	  0.195
 13.320	 -0.190	  0.195
 13.324	 -0.200	  0.185
 13.328	 -0.210	  0.190
 13.332	 -0.250	  0.180
 13.336	 -0.255	  0.170
 13.340	 -0.255	  0.180
 13.344	 -0.275	  0.170
 13.348	 -0.260	  0.180
 13.352	 -0.260	  0.175
 13.356	 -0.275	  0.205
 13.360	 -0.280	  0.240
 13.364	 -0.295	  0.195
 13.368	 -0.320	  0.200
 13.372	 -0.345	  0.210
 13.376	 -0.350	  0.190
 13.380	 -0.360	  0.200
 13.384	 -0.380	  0.195
 13.388	 -0.380	  0.195
 13.392	 -0.425	  0.190
 13.396	 -0.440	  0.185
 13.400	 -0.430	  0.160
 13.404	 -0.440	  0.170
 13.408	 -0.450	  0.170
 13.412	 -0.470	  0.150
 13.416	 -0.475	  0.150
 13.420	 -0.505	  0.160
 13.424	 -0.500	  0.150
 13.428	 -0.515	  0.135
 13.432	 -0.515	  0.120
 13.436	 -0.510	  0.120
 13.440	 -0.505	  0.130
 13.444	 -0.510	  0.145
 13.448	 -0.495	  0.140
 13.452	 -0.485	  0.120
 13.456	 -0.470	  0.130
 13.460	 -0.465	  0.095
 13.464	 -0.500	  0.100
 13.468	 -0.485	  0.080
 13.472	 -0.455	  0.075
 13.476	 -0.425	  0.045
 13.480	 -0.395	  0.050
 13.484	 -0.345	  0.080
 13.488	 -0.260	  0.080
 13.492	 -0.170	  0.130
 13.496	 -0.080	  0.150
 13.500	 -0.030	  0.150
 13.504	  0.005	  0.155
 13.508	  0.015	  0.155
 13.512	  0.015	  0.145
 13.516	  0.015	  0.175
 13.520	  0.010	  0.195
 13.524	  0.025	  0.205
 13.528	  0.030	  0.240
 13.532	  0.020	  0.250
 13.536	  0.015	  0.285
 13.540	  0.010	  0.290
 13.544	 -0.010	  0.305
 13.548	 -0.030	  0.280
 13.552	 -0.060	  0.270
 13.556	 -0.105	  0.280
 13.560	 -0.105	  0.235
 13.564	 -0.140	  0.235
 13.568	 -0.145	  0.230
 13.572	 -0.140	  0.235
 13.576	 -0.160	  0.225
 13.580	 -0.140	  0.215
 13.584	 -0.160	  0.215
 13.588	 -0.170	  0.195
 13.592	 -0.205	  0.215
 13.596	 -0.185	  0.210
 13.600	 -0.230	  0.200
 13.604	 -0.220	  0.165
 13.608	 -0.240	  0.175
 13.612	 -0.235	  0.180
 13.616	 -0.225	  0.175
 13.620	 -0.225	  0.165
 13.624	 -0.215	  0.140
 13.628	 -0.190	  0.135
 13.632	 -0.220	  0.115
 13.636	 -0.220	  0.125
 13.640	 -0.225	  0.145
 13.644	 -0.270	  0.140
 13.648	 -0.290	  0.145
 13.652	 -0.305	  0.150
 13.656	 -0.305	  0.125
 13.660	 -0.230	  0.165
 13.664	  0.000	  0.145
 13.668	  0.335	  0.015
 13.672	  0.600	 -0.070
 13.676	  0.815	 -0.210
 13.680	  0.890	 -0.540
 13.684	  0.505	 -1.045
 13.688	 -0.435	 -1.470
 13.692	 -1.310	 -1.790
 13.696	 -1.785	 -2.120
 13.700	 -1.835	 -2.320
 13.704	 -1.625	 -2.445
 13.708	 -1.255	 -2.330
 13.712	 -0.870	 -2.045
 13.716	 -0.585	 -1.595
 13.720	 -0.430	 -1.130
 13.724	 -0.320	 -0.735
 13.728	 -0.275	 -0.415
 13.732	 -0.280	 -0.185
 13.736	 -0.270	 -0.035
 13.740	 -0.275	  0.035
 13.744	 -0.295	  0.060
 13.748	 -0.275	  0.080
 13.752	 -0.265	  0.105
 13.756	 -0.270	  0.105
 13.760	 -0.255	  0.115
 13.764	 -0.250	  0.115
 13.768	 -0.265	  0.120
 13.772	 -0.265	  0.130
 13.776	 -0.280	  0.140
 13.780	 -0.275	  0.135
 13.784	 -0.305	  0.145
 13.788	 -0.310	  0.135
 13.792	 -0.305	  0.155
 13.796	 -0.310	  0.135
 13.800	 -0.305	  0.130
 13.804	 -0.290	  0.145
 13.808	 -0.305	  0.145
 13.812	 -0.295	  0.125
 13.816	 -0.315	  0.140
 13.820	 -0.345	  0.150
 13.824	 -0.370	  0.165
 13.828	 -0.385	  0.165
 13.832	 -0.390	  0.140
 13.836	 -0.415	  0.135
 13.840	 -0.425	  0.135
 13.844	 -0.430	  0.125
 13.848	 -0.445	  0.125
 13.852	 -0.465	  0.135
 13.856	 -0.470	  0.120
 13.860	 -0.495	  0.115
 13.864	 -0.505	  0.100
 13.868	 -0.525	  0.125
 13.872	 -0.560	  0.120
 13.876	 -0.605	  0.100
 13.880	 -0.605	  0.105
 13.884	 -0.610	  0.090
 13.888	 -0.610	  0.115
 13.892	 -0.630	  0.090
 13.896	 -0.620	  0.070
 13.900	 -0.625	  0.090
 13.904	 -0.635	  0.055
 13.908	 -0.640	  0.040
 13.912	 -0.620	  0.085
 13.916	 -0.640	  0.090
 13.920	 -0.640	  0.085
 13.924	 -0.640	  0.095
 13.928	 -0.610	  0.090
 13.932	 -0.595	  0.070
 13.936	 -0.555	  0.075
 13.940	 -0.500	  0.090
 13.944	 -0.445	  0.105
 13.948	 -0.380	  0.105
 13.952	 -0.350	  0.115
 13.956	 -0.330	  0.105
 13.960	 -0.275	  0.125
 13.964	 -0.245	  0.130
 13.968	 -0.230	  0.135
 13.972	 -0.175	  0.150
 13.976	 -0.140	  0.190
 13.980	 -0.095	  0.200
 13.984	 -0.065	  0.235
 13.988	 -0.045	  0.250
 13.992	 -0.025	  0.235
 13.996	 -0.015	  0.245
 14.000	 -0.015	  0.245
 14.004	 -0.045	  0.230
 14.008	 -0.100	  0.240
 14.012	 -0.080	  0.245
 14.016	 -0.075	  0.245
 14.020	 -0.080	  0.245
 14.024	 -0.070	  0.230
 14.028	 -0.080	  0.215
 14.032	 -0.085	  0.205
 14.036	 -0.095	  0.205
 14.040	 -0.115	  0.220
 14.044	 -0.125	  0.205
 14.048	 -0.130	  0.205
 14.052	 -0.145	  0.225
 14.056	 -0.160	  0.190
 14.060	 -0.145	  0.190
 14.064	 -0.160	  0.175
 14.068	 -0.150	  0.175
 14.072	 -0.155	  0.165
 14.076	 -0.150	  0.160
 14.080	 -0.135	  0.155
 14.084	 -0.145	  0.170
 14.088	 -0.140	  0.180
 14.092	 -0.175	  0.170
 14.096	 -0.180	  0.175
 14.100	 -0.180	  0.160
 14.104	 -0.200	  0.160
 14.108	 -0.200	  0.170
 14.112	 -0.200	  0.160
 14.116	 -0.180	  0.160
 14.120	 -0.185	  0.165
 14.124	 -0.180	  0.160
 14.128	 -0.175	  0.140
 14.132	 -0.155	  0.155
 14.136	 -0.180	  0.140
 14.140	 -0.200	  0.120
 14.144	 -0.185	  0.120
 14.148	 -0.190	  0.130
 14.152	 -0.195	  0.140
 14.156	 -0.190	  0.130
 14.160	 -0.195	  0.125
 14.164	 -0.175	  0.130
 14.168	 -0.175	  0.130
 14.172	 -0.180	  0.140
 14.176	 -0.180	  0.125
 14.180	 -0.180	  0.095
 14.184	 -0.200	  0.105
 14.188	 -0.180	  0.100
 14.192	 -0.205	  0.110
 14.196	 -0.220	  0.100
 14.200	 -0.230	  0.100
 14.204	 -0.215	  0.115
 14.208	 -0.210	  0.110
 14.212	 -0.170	  0.100
 14.216	 -0.165	  0.090
 14.220	 -0.160	  0.100
 14.224	 -0.195	  0.125
 14.228	 -0.190	  0.090
 14.232	 -0.195	  0.080
 14.236	 -0.220	  0.090
 14.240	 -0.190	  0.110
 14.244	 -0.190	  0.100
 14.248	 -0.200	  0.090
 14.252	 -0.155	  0.090
 14.256	 -0.170	  0.095
 14.260	 -0.175	  0.080
 14.264	 -0.185	  0.075
 14.268	 -0.170	  0.070
 14.272	 -0.215	  0.095
 14.276	 -0.225	  0.070
 14.280	 -0.210	  0.065
 14.284	 -0.195	  0.075
 14.288	 -0.195	  0.090
 14.292	 -0.190	  0.085
 14.296	 -0.175	  0.095
 14.300	 -0.170	  0.105
 14.304	 -0.170	  0.085
 14.308	 -0.195	  0.080
 14.312	 -0.175	  0.100
 14.316	 -0.200	  0.090
 14.320	 -0.195	  0.090
 14.324	 -0.190	  0.065
 14.328	 -0.215	  0.075
 14.332	 -0.195	  0.085
 14.336	 -0.205	  0.075
 14.340	 -0.210	  0.070
 14.344	 -0.190	  0.095
 14.348	 -0.170	  0.075
 14.352	 -0.185	  0.090
 14.356	 -0.180	  0.080
 14.360	 -0.225	  0.065
 14.364	 -0.220	  0.065
 14.368	 -0.215	  0.060
 14.372	 -0.215	  0.050
 14.376	 -0.230	  0.035
 14.380	 -0.220	  0.065
 14.384	 -0.185	  0.095
 14.388	 -0.190	  0.075
 14.392	 -0.165	  0.100
 14.396	 -0.170	  0.095
 14.400	 -0.200	  0.095
 14.404	 -0.215	  0.090
 14.408	 -0.235	  0.070
 14.412	 -0.240	  0.075
 14.416	 -0.215	  0.070
 14.420	 -0.205	  0.065
 14.424	 -0.220	  0.100
 14.428	 -0.205	  0.080
 14.432	 -0.185	  0.090
 14.436	 -0.185	  0.070
 14.440	 -0.200	  0.045
 14.444	 -0.185	  0.040
 14.448	 -0.175	  0.060
 14.452	 -0.145	  0.070
 14.456	 -0.125	  0.060
 14.460	 -0.100	  0.070
 14.464	 -0.105	  0.100
 14.468	 -0.100	  0.110
 14.472	 -0.080	  0.165
 14.476	 -0.065	  0.175
 14.480	 -0.020	  0.150
 14.484	  0.000	  0.150
 14.488	 -0.010	  0.140
 14.492	  0.000	  0.125
 14.496	  0.015	  0.100
 14.500	 -0.005	  0.100
 14.504	 -0.060	  0.060
 14.508	 -0.105	  0.070
 14.512	 -0.140	  0.050
 14.516	 -0.160	  0.035
 14.520	 -0.185	  0.035
 14.524	 -0.205	  0.070
 14.528	 -0.245	  0.050
 14.532	 -0.255	  0.030
 14.536	 -0.275	  0.030
 14.540	 -0.300	  0.025
 14.544	 -0.315	  0.025
 14.548	 -0.295	  0.035
 14.552	 -0.285	  0.005
 14.556	 -0.265	  0.020
 14.560	 -0.205	  0.020
 14.564	 -0.125	  0.065
 14.568	 -0.010	  0.125
 14.572	  0.230	  0.165
 14.576	  0.575	  0.155
 14.580	  0.835	  0.115
 14.584	  1.015	  0.095
 14.588	  1.150	 -0.075
 14.592	  0.980	 -0.450
 14.596	  0.255	 -0.935
 14.600	 -0.680	 -1.335
 14.604	 -1.365	 -1.630
 14.608	 -1.625	 -1.870
 14.612	 -1.585	 -2.060
 14.616	 -1.440	 -2.110
 14.620	 -1.170	 -1.975
 14.624	 -0.860	 -1.720
 14.628	 -0.640	 -1.380
 14.632	 -0.520	 -1.055
 14.636	 -0.445	 -0.730
 14.640	 -0.390	 -0.430
 14.644	 -0.365	 -0.225
 14.648	 -0.375	 -0.100
 14.652	 -0.350	 -0.035
 14.656	 -0.335	  0.020
 14.660	 -0.325	  0.035
 14.664	 -0.325	  0.050
 14.668	 -0.345	  0.050
 14.672	 -0.360	  0.070
 14.676	 -0.370	  0.070
 14.680	 -0.380	  0.075
 14.684	 -0.375	  0.085
 14.688	 -0.370	  0.075
 14.692	 -0.355	  0.090
 14.696	 -0.350	  0.100
 14.700	 -0.355	  0.120
 14.704	 -0.355	  0.090
 14.708	 -0.365	  0.095
 14.712	 -0.385	  0.090
 14.716	 -0.405	  0.095
 14.720	 -0.400	  0.105
 14.724	 -0.430	  0.105
 14.728	 -0.440	  0.070
 14.732	 -0.440	  0.085
 14.736	 -0.440	  0.080
 14.740	 -0.410	  0.115
 14.744	 -0.420	  0.110
 14.748	 -0.415	  0.100
 14.752	 -0.430	  0.070
 14.756	 -0.415	  0.080
 14.760	 -0.450	  0.070
 14.764	 -0.460	  0.090
 14.768	 -0.475	  0.065
 14.772	 -0.485	  0.080
 14.776	 -0.490	  0.075
 14.780	 -0.485	  0.050
 14.784	 -0.465	  0.045
 14.788	 -0.470	  0.050
 14.792	 -0.460	  0.065
 14.796	 -0.485	  0.045
 14.800	 -0.480	  0.055
 14.804	 -0.500	  0.060
 14.808	 -0.530	  0.060
 14.812	 -0.530	  0.040
 14.816	 -0.520	  0.030
 14.820	 -0.520	  0.035
 14.824	 -0.530	  0.000
 14.828	 -0.495	  0.000
 14.832	 -0.500	  0.010
 14.836	 -0.495	 -0.025
 14.840	 -0.480	 -0.035
 14.844	 -0.510	 -0.065
 14.848	 -0.500	 -0.055
 14.852	 -0.505	 -0.045
 14.856	 -0.525	 -0.075
 14.860	 -0.515	 -0.085
 14.864	 -0.500	 -0.075
 14.868	 -0.510	 -0.080
 14.872	 -0.470	 -0.085
 14.876	 -0.420	 -0.100
 14.880	 -0.415	 -0.105
 14.884	 -0.380	 -0.120
 14.888	 -0.390	 -0.120
 14.892	 -0.355	 -0.125
 14.896	 -0.345	 -0.145
 14.900	 -0.315	 -0.120
 14.904	 -0.270	 -0.135
 14.908	 -0.245	 -0.110
 14.912	 -0.200	 -0.105
 14.916	 -0.170	 -0.100
 14.920	 -0.135	 -0.080
 14.924	 -0.095	 -0.020
 14.928	 -0.080	 -0.030
 14.932	 -0.065	  0.015
 14.936	 -0.070	  0.005
 14.940	 -0.060	  0.040
 14.944	 -0.080	  0.055
 14.948	 -0.075	  0.080
 14.952	 -0.070	  0.100
 14.956	 -0.065	  0.175
 14.960	 -0.060	  0.150
 14.964	 -0.065	  0.180
 14.968	 -0.065	  0.190
 14.972	 -0.075	  0.180
 14.976	 -0.105	  0.200
 14.980	 -0.100	  0.220
 14.984	 -0.140	  0.210
 14.988	 -0.155	  0.210
 14.992	 -0.170	  0.190
 14.996	 -0.160	  0.200
 15.000	 -0.170	  0.215
 15.004	 -0.170	  0.190
 15.008	 -0.145	  0.185
 15.012	 -0.125	  0.195
 15.016	 -0.135	  0.210
 15.020	 -0.140	  0.185
 15.024	 -0.125	  0.170
 15.028	 -0.145	  0.165
 15.032	 -0.165	  0.160
 15.036	 -0.170	  0.170
 15.040	 -0.165	  0.140
 15.044	 -0.190	  0.135
 15.048	 -0.190	  0.130
 15.052	 -0.170	  0.135
 15.056	 -0.155	  0.115
 15.060	 -0.150	  0.090
 15.064	 -0.160	  0.110
 15.068	 -0.170	  0.105
 15.072	 -0.195	  0.115
 15.076	 -0.225	  0.090
 15.080	 -0.220	  0.095
 15.084	 -0.230	  0.100
 15.088	 -0.220	  0.105
 15.092	 -0.210	  0.120
 15.096	 -0.190	  0.085
 15.100	 -0.200	  0.095
 15.104	 -0.195	  0.065
 15.108	 -0.185	  0.100
 15.112	 -0.190	  0.110
 15.116	 -0.225	  0.095
 15.120	 -0.245	  0.090
 15.124	 -0.240	  0.075
 15.128	 -0.225	  0.045
 15.132	 -0.230	  0.045
 15.136	 -0.220	  0.050
 15.140	 -0.205	  0.070
 15.144	 -0.185	  0.080
 15.148	 -0.195	  0.055
 15.152	 -0.205	  0.050
 15.156	 -0.210	  0.050
 15.160	 -0.225	  0.050
 15.164	 -0.225	  0.065
 15.168	 -0.220	  0.050
 15.172	 -0.220	  0.040
 15.176	 -0.260	  0.035
 15.180	 -0.230	  0.020
 15.184	 -0.215	  0.035
 15.188	 -0.210	  0.045
 15.192	 -0.225	  0.025
 15.196	 -0.215	  0.095
 15.200	 -0.220	  0.065
 15.204	 -0.220	  0.050
 15.208	 -0.240	  0.065
 15.212	 -0.255	  0.065
 15.216	 -0.250	  0.040
 15.220	 -0.240	  0.045
 15.224	 -0.240	  0.015
 15.228	 -0.225	  0.050
 15.232	 -0.210	  0.030
 15.236	 -0.210	  0.015
 15.240	 -0.225	  0.030
 15.244	 -0.225	  0.040
 15.248	 -0.220	  0.020
 15.252	 -0.260	  0.035
 15.256	 -0.270	  0.020
 15.260	 -0.255	  0.010
 15.264	 -0.260	  0.025
 15.268	 -0.270	  0.010
 15.272	 -0.265	  0.025
 15.276	 -0.240	  0.030
 15.280	 -0.245	  0.020
 15.284	 -0.250	  0.030
 15.288	 -0.220	  0.010
 15.292	 -0.245	  0.010
 15.296	 -0.245	  0.020
 15.300	 -0.240	  0.035
 15.304	 -0.235	  0.040
 15.308	 -0.230	  0.055
 15.312	 -0.220	  0.020
 15.316	 -0.185	  0.040
 15.320	 -0.140	  0.045
 15.324	 -0.105	  0.075
 15.328	 -0.085	  0.115
 15.332	 -0.115	  0.130
 15.336	 -0.105	  0.140
 15.340	 -0.100	  0.110
 15.344	 -0.095	  0.140
 15.348	 -0.105	  0.125
 15.352	 -0.125	  0.100
 15.356	 -0.095	  0.055
 15.360	 -0.080	  0.030
 15.364	 -0.110	 -0.015
 15.368	 -0.135	 -0.050
 15.372	 -0.145	 -0.045
 15.376	 -0.170	 -0.075
 15.380	 -0.215	 -0.060
 15.384	 -0.270	 -0.030
 15.388	 -0.295	 -0.005
 15.392	 -0.320	  0.000
 15.396	 -0.310	 -0.010
 15.400	 -0.340	 -0.020
 15.404	 -0.335	 -0.020
 15.408	 -0.330	 -0.025
 15.412	 -0.305	 -0.010
 15.416	 -0.295	 -0.025
 15.420	 -0.285	 -0.040
 15.424	 -0.225	 -0.055
 15.428	 -0.195	  0.000
 15.432	 -0.065	  0.050
 15.436	  0.170	  0.130
 15.440	  0.510	  0.105
 15.444	  0.800	  0.090
 15.448	  0.980	  0.035
 15.452	  1.110	 -0.135
 15.456	  0.890	 -0.520
 15.460	  0.135	 -0.960
 15.464	 -0.795	 -1.335
 15.468	 -1.415	 -1.660
 15.472	 -1.680	 -1.910
 15.476	 -1.665	 -2.075
 15.480	 -1.530	 -2.135
 15.484	 -1.240	 -2.015
 15.488	 -0.965	 -1.760
 15.492	 -0.715	 -1.435
 15.496	 -0.575	 -1.120
 15.500	 -0.450	 -0.775
 15.504	 -0.380	 -0.455
 15.508	 -0.365	 -0.245
 15.512	 -0.385	 -0.140
 15.516	 -0.385	 -0.075
 15.520	 -0.400	 -0.035
 15.524	 -0.400	 -0.010
 15.528	 -0.380	  0.030
 15.532	 -0.380	  0.060
 15.536	 -0.385	  0.055
 15.540	 -0.395	  0.075
 15.544	 -0.395	  0.075
 15.548	 -0.385	  0.065
 15.552	 -0.400	  0.060
 15.556	 -0.395	  0.070
 15.560	 -0.390	  0.085
 15.564	 -0.395	  0.075
 15.568	 -0.405	  0.080
 15.572	 -0.415	  0.110
 15.576	 -0.425	  0.120
 15.580	 -0.425	  0.085
 15.584	 -0.420	  0.110
 15.588	 -0.395	  0.100
 15.592	 -0.430	  0.100
 15.596	 -0.420	  0.105
 15.600	 -0.445	  0.115
 15.604	 -0.460	  0.090
 15.608	 -0.495	  0.090
 15.612	 -0.520	  0.090
 15.616	 -0.505	  0.095
 15.620	 -0.520	  0.100
 15.624	 -0.555	  0.100
 15.628	 -0.560	  0.100
 15.632	 -0.570	  0.105
 15.636	 -0.595	  0.055
 15.640	 -0.615	  0.070
 15.644	 -0.620	  0.075
 15.648	 -0.655	  0.075
 15.652	 -0.655	  0.055
 15.656	 -0.685	  0.040
 15.660	 -0.730	  0.030
 15.664	 -0.730	  0.020
 15.668	 -0.770	  0.030
 15.672	 -0.785	  0.005
 15.676	 -0.775	 -0.030
 15.680	 -0.790	 -0.035
 15.684	 -0.810	 -0.030
 15.688	 -0.815	 -0.045
 15.692	 -0.850	 -0.080
 15.696	 -0.865	 -0.085
 15.700	 -0.895	 -0.120
 15.704	 -0.885	 -0.120
 15.708	 -0.920	 -0.140
 15.712	 -0.955	 -0.130
 15.716	 -0.955	 -0.145
 15.720	 -0.940	 -0.160
 15.724	 -0.895	 -0.170
 15.728	 -0.885	 -0.195
 15.732	 -0.875	 -0.220
 15.736	 -0.830	 -0.200
 15.740	 -0.790	 -0.220
 15.744	 -0.760	 -0.210
 15.748	 -0.735	 -0.180
 15.752	 -0.670	 -0.175
 15.756	 -0.635	 -0.185
 15.760	 -0.565	 -0.125
 15.764	 -0.505	 -0.120
 15.768	 -0.435	 -0.145
 15.772	 -0.385	 -0.100
 15.776	 -0.370	 -0.080
 15.780	 -0.335	 -0.060
 15.784	 -0.300	 -0.050
 15.788	 -0.285	 -0.020
 15.792	 -0.275	  0.015
 15.796	 -0.270	  0.065
 15.800	 -0.270	  0.110
 15.804	 -0.260	  0.090
 15.808	 -0.235	  0.105
 15.812	 -0.235	  0.125
 15.816	 -0.240	  0.075
 15.820	 -0.220	  0.095
 15.824	 -0.220	  0.110
 15.828	 -0.245	  0.120
 15.832	 -0.255	  0.115
 15.836	 -0.255	  0.115
 15.840	 -0.275	  0.130
 15.844	 -0.275	  0.100
 15.848	 -0.285	  0.130
 15.852	 -0.275	  0.135
 15.856	 -0.265	  0.160
 15.860	 -0.240	  0.155
 15.864	 -0.240	  0.145
 15.868	 -0.240	  0.120
 15.872	 -0.255	  0.140
 15.876	 -0.265	  0.130
 15.880	 -0.285	  0.110
 15.884	 -0.285	  0.105
 15.888	 -0.285	  0.110
 15.892	 -0.290	  0.105
 15.896	 -0.285	  0.105
 15.900	 -0.295	  0.085
 15.904	 -0.280	  0.085
 15.908	 -0.270	  0.085
 15.912	 -0.260	  0.090
 15.916	 -0.260	  0.075
 15.920	 -0.270	  0.080
 15.924	 -0.275	  0.065
 15.928	 -0.275	  0.080
 15.932	 -0.280	  0.065
 15.936	 -0.285	  0.075
 15.940	 -0.270	  0.060
 15.944	 -0.295	  0.050
 15.948	 -0.285	  0.070
 15.952	 -0.270	  0.045
 15.956	 -0.290	  0.060
 15.960	 -0.290	  0.065
 15.964	 -0.315	  0.070
 15.968	 -0.305	  0.105
 15.972	 -0.200	  0.150
 15.976	  0.130	  0.135
 15.980	  0.540	  0.035
 15.984	  0.855	 -0.085
 15.988	  1.055	 -0.225
 15.992	  0.865	 -0.385
 15.996	  0.025	 -0.735
 16.000	 -0.920	 -1.115
 16.004	 -1.575	 -1.510
 16.008	 -1.770	 -1.780
 16.012	 -1.715	 -1.975
 16.016	 -1.510	 -2.055
 16.020	 -1.180	 -1.990
 16.024	 -0.840	 -1.755
 16.028	 -0.575	 -1.365
 16.032	 -0.405	 -0.990
 16.036	 -0.315	 -0.620
 16.040	 -0.280	 -0.380
 16.044	 -0.250	 -0.170
 16.048	 -0.240	 -0.010
 16.052	 -0.240	  0.020
 16.056	 -0.270	  0.060
 16.060	 -0.235	  0.060
 16.064	 -0.260	  0.085
 16.068	 -0.285	  0.085
 16.072	 -0.245	  0.080
 16.076	 -0.255	  0.090
 16.080	 -0.245	  0.090
 16.084	 -0.235	  0.095
 16.088	 -0.220	  0.145
 16.092	 -0.240	  0.145
 16.096	 -0.255	  0.135
 16.100	 -0.250	  0.125
 16.104	 -0.235	  0.135
 16.108	 -0.255	  0.140
 16.112	 -0.260	  0.115
 16.116	 -0.280	  0.110
 16.120	 -0.285	  0.105
 16.124	 -0.275	  0.140
 16.128	 -0.265	  0.150
 16.132	 -0.280	  0.150
 16.136	 -0.275	  0.135
 16.140	 -0.270	  0.140
 16.144	 -0.305	  0.145
 16.148	 -0.335	  0.150
 16.152	 -0.335	  0.130
 16.156	 -0.370	  0.130
 16.160	 -0.390	  0.115
 16.164	 -0.400	  0.140
 16.168	 -0.430	  0.120
 16.172	 -0.445	  0.135
 16.176	 -0.460	  0.125
 16.180	 -0.440	  0.110
 16.184	 -0.480	  0.080
 16.188	 -0.480	  0.095
 16.192	 -0.515	  0.065
 16.196	 -0.520	  0.100
 16.200	 -0.540	  0.085
 16.204	 -0.560	  0.080
 16.208	 -0.590	  0.055
 16.212	 -0.585	  0.040
 16.216	 -0.575	  0.050
 16.220	 -0.575	  0.055
 16.224	 -0.555	  0.050
 16.228	 -0.570	  0.025
 16.232	 -0.610	  0.035
 16.236	 -0.600	  0.040
 16.240	 -0.575	  0.005
 16.244	 -0.565	 -0.020
 16.248	 -0.525	 -0.015
 16.252	 -0.475	 -0.030
 16.256	 -0.415	 -0.055
 16.260	 -0.350	 -0.050
 16.264	 -0.290	 -0.045
 16.268	 -0.245	 -0.010
 16.272	 -0.180	  0.005
 16.276	 -0.155	 -0.010
 16.280	 -0.145	  0.005
 16.284	 -0.115	  0.010
 16.288	 -0.095	  0.045
 16.292	 -0.100	  0.055
 16.296	 -0.070	  0.075
 16.300	 -0.040	  0.140
 16.304	 -0.020	  0.180
 16.308	 -0.020	  0.165
 16.312	 -0.005	  0.170
 16.316	 -0.020	  0.185
 16.320	 -0.005	  0.170
 16.324	 -0.070	  0.195
 16.328	 -0.095	  0.180
 16.332	 -0.100	  0.185
 16.336	 -0.110	  0.190
 16.340	 -0.105	  0.175
 16.344	 -0.125	  0.195
 16.348	 -0.120	  0.175
 16.352	 -0.120	  0.190
 16.356	 -0.100	  0.175
 16.360	 -0.120	  0.175
 16.364	 -0.120	  0.155
 16.368	 -0.125	  0.160
 16.372	 -0.140	  0.175
 16.376	 -0.160	  0.165
 16.380	 -0.140	  0.165
 16.384	 -0.130	  0.155
 16.388	 -0.125	  0.145
 16.392	 -0.140	  0.120
 16.396	 -0.175	  0.100
 16.400	 -0.175	  0.095
 16.404	 -0.180	  0.120
 16.408	 -0.150	  0.105
 16.412	 -0.175	  0.085
 16.416	 -0.210	  0.105
 16.420	 -0.215	  0.105
 16.424	 -0.215	  0.085
 16.428	 -0.205	  0.080
 16.432	 -0.180	  0.075
 16.436	 -0.170	  0.080
 16.440	 -0.170	  0.075
 16.444	 -0.185	  0.075
 16.448	 -0.170	  0.055
 16.452	 -0.175	  0.065
 16.456	 -0.205	  0.090
 16.460	 -0.210	  0.090
 16.464	 -0.210	  0.095
 16.468	 -0.195	  0.075
 16.472	 -0.160	  0.065
 16.476	 -0.145	  0.055
 16.480	 -0.145	  0.060
 16.484	 -0.090	  0.050
 16.488	 -0.010	  0.055
 16.492	  0.035	  0.110
 16.496	  0.095	  0.135
 16.500	  0.115	  0.125
 16.504	  0.075	  0.190
 16.508	  0.100	  0.220
 16.512	  0.090	  0.190
 16.516	  0.110	  0.195
 16.520	  0.080	  0.185
 16.524	  0.040	  0.175
 16.528	  0.000	  0.140
 16.532	 -0.050	  0.130
 16.536	 -0.120	  0.120
 16.540	 -0.150	  0.090
 16.544	 -0.175	  0.120
 16.548	 -0.170	  0.125
 16.552	 -0.225	  0.095
 16.556	 -0.305	  0.080
 16.560	 -0.300	  0.035
 16.564	 -0.280	  0.035
 16.568	 -0.225	  0.020
 16.572	 -0.185	  0.005
 16.576	 -0.155	 -0.025
 16.580	 -0.110	 -0.010
 16.584	 -0.060	  0.050
 16.588	  0.075	  0.135
 16.592	  0.340	  0.160
 16.596	  0.705	  0.175
 16.600	  1.015	  0.160
 16.604	  1.220	  0.105
 16.608	  1.250	  0.040
 16.612	  0.790	 -0.225
 16.616	 -0.120	 -0.600
 16.620	 -0.945	 -0.945
 16.624	 -1.415	 -1.215
 16.628	 -1.515	 -1.455
 16.632	 -1.435	 -1.600
 16.636	 -1.315	 -1.635
 16.640	 -1.120	 -1.575
 16.644	 -0.845	 -1.370
 16.648	 -0.585	 -1.120
 16.652	 -0.455	 -0.875
 16.656	 -0.425	 -0.635
 16.660	 -0.415	 -0.415
 16.664	 -0.355	 -0.215
 16.668	 -0.330	 -0.080
 16.672	 -0.310	 -0.015
 16.676	 -0.320	  0.010
 16.680	 -0.325	  0.050
 16.684	 -0.320	  0.020
 16.688	 -0.315	  0.045
 16.692	 -0.320	  0.055
 16.696	 -0.295	  0.080
 16.700	 -0.260	  0.085
 16.704	 -0.280	  0.090
 16.708	 -0.305	  0.100
 16.712	 -0.335	  0.100
 16.716	 -0.350	  0.125
 16.720	 -0.360	  0.140
 16.724	 -0.350	  0.135
 16.728	 -0.375	  0.100
 16.732	 -0.405	  0.095
 16.736	 -0.400	  0.110
 16.740	 -0.420	  0.085
 16.744	 -0.480	  0.085
 16.748	 -0.530	  0.065
 16.752	 -0.520	  0.100
 16.756	 -0.520	  0.075
 16.760	 -0.495	  0.060
 16.764	 -0.540	  0.085
 16.768	 -0.625	  0.070
 16.772	 -0.680	  0.085
 16.776	 -0.670	  0.080
 16.780	 -0.690	  0.065
 16.784	 -0.695	  0.040
 16.788	 -0.715	  0.045
 16.792	 -0.690	  0.075
 16.796	 -0.750	  0.045
 16.800	 -0.800	  0.040
 16.804	 -0.815	  0.050
 16.808	 -0.815	  0.025
 16.812	 -0.845	  0.040
 16.816	 -0.890	  0.040
 16.820	 -0.915	  0.030
 16.824	 -0.925	  0.000
 16.828	 -0.955	  0.030
 16.832	 -0.975	 -0.010
 16.836	 -0.960	 -0.020
 16.840	 -0.960	 -0.010
 16.844	 -1.000	 -0.020
 16.848	 -1.030	 -0.045
 16.852	 -1.070	 -0.090
 16.856	 -1.090	 -0.075
 16.860	 -1.080	 -0.080
 16.864	 -1.095	 -0.065
 16.868	 -1.110	 -0.120
 16.872	 -1.070	 -0.145
 16.876	 -1.040	 -0.140
 16.880	 -1.020	 -0.150
 16.884	 -0.960	 -0.130
 16.888	 -0.920	 -0.125
 16.892	 -0.875	 -0.130
 16.896	 -0.810	 -0.140
 16.900	 -0.780	 -0.120
 16.904	 -0.720	 -0.095
 16.908	 -0.695	 -0.115
 16.912	 -0.640	 -0.080
 16.916	 -0.600	 -0.055
 16.920	 -0.565	 -0.055
 16.924	 -0.505	 -0.020
 16.928	 -0.445	  0.000
 16.932	 -0.420	  0.040
 16.936	 -0.440	  0.065
 16.940	 -0.440	  0.080
 16.944	 -0.445	  0.100
 16.948	 -0.420	  0.115
 16.952	 -0.415	  0.125
 16.956	 -0.395	  0.135
 16.960	 -0.355	  0.140
 16.964	 -0.355	  0.165
 16.968	 -0.360	  0.165
 16.972	 -0.340	  0.190
 16.976	 -0.310	  0.200
 16.980	 -0.310	  0.195
 16.984	 -0.315	  0.180
 16.988	 -0.360	  0.175
 16.992	 -0.360	  0.195
 16.996	 -0.370	  0.200
 17.000	 -0.365	  0.195
 17.004	 -0.365	  0.185
 17.008	 -0.375	  0.195
 17.012	 -0.360	  0.180
 17.016	 -0.350	  0.175
 17.020	 -0.345	  0.170
 17.024	 -0.340	  0.175
 17.028	 -0.360	  0.190
 17.032	 -0.360	  0.160
 17.036	 -0.400	  0.160
 17.040	 -0.410	  0.155
 17.044	 -0.425	  0.155
 17.048	 -0.425	  0.165
 17.052	 -0.425	  0.160
 17.056	 -0.410	  0.170
 17.060	 -0.410	  0.190
 17.064	 -0.410	  0.175
 17.068	 -0.400	  0.175
 17.072	 -0.430	  0.180
 17.076	 -0.445	  0.155
 17.080	 -0.450	  0.145
 17.084	 -0.450	  0.120
 17.088	 -0.460	  0.130
 17.092	 -0.490	  0.120
 17.096	 -0.480	  0.150
 17.100	 -0.475	  0.140
 17.104	 -0.470	  0.130
 17.108	 -0.475	  0.115
 17.112	 -0.475	  0.130
 17.116	 -0.485	  0.120
 17.120	 -0.515	  0.155
 17.124	 -0.505	  0.155
 17.128	 -0.515	  0.135
 17.132	 -0.495	  0.115
 17.136	 -0.510	  0.125
 17.140	 -0.500	  0.140
 17.144	 -0.500	  0.135
 17.148	 -0.500	  0.125
 17.152	 -0.500	  0.155
 17.156	 -0.505	  0.140
 17.160	 -0.515	  0.135
 17.164	 -0.545	  0.160
 17.168	 -0.555	  0.150
 17.172	 -0.540	  0.150
 17.176	 -0.525	  0.140
 17.180	 -0.525	  0.140
 17.184	 -0.535	  0.145
 17.188	 -0.535	  0.135
 17.192	 -0.515	  0.145
 17.196	 -0.510	  0.155
 17.200	 -0.505	  0.155
 17.204	 -0.535	  0.145
 17.208	 -0.530	  0.145
 17.212	 -0.540	  0.150
 17.216	 -0.540	  0.135
 17.220	 -0.540	  0.140
 17.224	 -0.535	  0.160
 17.228	 -0.545	  0.125
 17.232	 -0.540	  0.150
 17.236	 -0.540	  0.125
 17.240	 -0.525	  0.145
 17.244	 -0.525	  0.140
 17.248	 -0.525	  0.150
 17.252	 -0.560	  0.150
 17.256	 -0.565	  0.155
 17.260	 -0.560	  0.155
 17.264	 -0.550	  0.150
 17.268	 -0.535	  0.140
 17.272	 -0.530	  0.160
 17.276	 -0.540	  0.165
 17.280	 -0.530	  0.180
 17.284	 -0.520	  0.170
 17.288	 -0.510	  0.180
 17.292	 -0.530	  0.175
 17.296	 -0.550	  0.170
 17.300	 -0.555	  0.155
 17.304	 -0.570	  0.150
 17.308	 -0.540	  0.140
 17.312	 -0.565	  0.150
 17.316	 -0.525	  0.140
 17.320	 -0.540	  0.160
 17.324	 -0.535	  0.170
 17.328	 -0.525	  0.150
 17.332	 -0.520	  0.140
 17.336	 -0.525	  0.155
 17.340	 -0.545	  0.155
 17.344	 -0.565	  0.150
 17.348	 -0.555	  0.170
 17.352	 -0.560	  0.160
 17.356	 -0.545	  0.150
 17.360	 -0.570	  0.185
 17.364	 -0.550	  0.170
 17.368	 -0.555	  0.185
 17.372	 -0.540	  0.175
 17.376	 -0.540	  0.190
 17.380	 -0.520	  0.170
 17.384	 -0.540	  0.175
 17.388	 -0.550	  0.155
 17.392	 -0.570	  0.155
 17.396	 -0.580	  0.155
 17.400	 -0.560	  0.165
 17.404	 -0.540	  0.155
 17.408	 -0.540	  0.155
 17.412	 -0.550	  0.175
 17.416	 -0.570	  0.165
 17.420	 -0.545	  0.165
 17.424	 -0.525	  0.175
 17.428	 -0.525	  0.165
 17.432	 -0.485	  0.165
 17.436	 -0.460	  0.180
 17.440	 -0.450	  0.205
 17.444	 -0.435	  0.200
 17.448	 -0.425	  0.205
 17.452	 -0.395	  0.240
 17.456	 -0.365	  0.235
 17.460	 -0.350	  0.235
 17.464	 -0.360	  0.255
 17.468	 -0.365	  0.250
 17.472	 -0.375	  0.225
 17.476	 -0.375	  0.215
 17.480	 -0.395	  0.190
 17.484	 -0.435	  0.150
 17.488	 -0.455	  0.100
 17.492	 -0.485	  0.085
 17.496	 -0.490	  0.035
 17.500	 -0.500	  0.075
 17.504	 -0.515	  0.120
 17.508	 -0.540	  0.115
 17.512	 -0.570	  0.140
 17.516	 -0.620	  0.130
 17.520	 -0.620	  0.140
 17.524	 -0.640	  0.125
 17.528	 -0.610	  0.115
 17.532	 -0.615	  0.135
 17.536	 -0.585	  0.095
 17.540	 -0.510	  0.105
 17.544	 -0.430	  0.145
 17.548	 -0.300	  0.175
 17.552	 -0.075	  0.220
 17.556	  0.230	  0.225
 17.560	  0.455	  0.180
 17.564	  0.560	  0.185
 17.568	  0.645	  0.055
 17.572	  0.470	 -0.310
 17.576	 -0.190	 -0.785
 17.580	 -1.090	 -1.180
 17.584	 -1.720	 -1.485
 17.588	 -1.940	 -1.695
 17.592	 -1.905	 -1.920
 17.596	 -1.730	 -2.060
 17.600	 -1.455	 -1.990
 17.604	 -1.165	 -1.735
 17.608	 -0.970	 -1.425
 17.612	 -0.815	 -1.090
 17.616	 -0.725	 -0.750
 17.620	 -0.660	 -0.440
 17.624	 -0.635	 -0.195
 17.628	 -0.630	 -0.075
 17.632	 -0.615	  0.015
 17.636	 -0.620	  0.075
 17.640	 -0.605	  0.115
 17.644	 -0.620	  0.135
 17.648	 -0.630	  0.160
 17.652	 -0.630	  0.165
 17.656	 -0.630	  0.175
 17.660	 -0.640	  0.200
 17.664	 -0.635	  0.165
 17.668	 -0.625	  0.170
 17.672	 -0.640	  0.195
 17.676	 -0.630	  0.195
 17.680	 -0.625	  0.195
 17.684	 -0.640	  0.185
 17.688	 -0.615	  0.200
 17.692	 -0.640	  0.225
 17.696	 -0.675	  0.215
 17.700	 -0.695	  0.245
 17.704	 -0.675	  0.225
 17.708	 -0.685	  0.185
 17.712	 -0.700	  0.225
 17.716	 -0.725	  0.230
 17.720	 -0.710	  0.235
 17.724	 -0.705	  0.210
 17.728	 -0.710	  0.210
 17.732	 -0.710	  0.220
 17.736	 -0.725	  0.225
 17.740	 -0.730	  0.215
 17.744	 -0.770	  0.215
 17.748	 -0.790	  0.205
 17.752	 -0.790	  0.185
 17.756	 -0.775	  0.185
 17.760	 -0.815	  0.190
 17.764	 -0.815	  0.190
 17.768	 -0.820	  0.170
 17.772	 -0.850	  0.150
 17.776	 -0.830	  0.135
 17.780	 -0.860	  0.135
 17.784	 -0.910	  0.150
 17.788	 -0.960	  0.155
 17.792	 -0.945	  0.120
 17.796	 -0.990	  0.065
 17.800	 -0.985	  0.115
 17.804	 -1.000	  0.110
 17.808	 -0.990	  0.110
 17.812	 -1.010	  0.105
 17.816	 -1.010	  0.075
 17.820	 -1.005	  0.060
 17.824	 -1.030	  0.065
 17.828	 -1.070	  0.050
 17.832	 -1.075	  0.035
 17.836	 -1.110	  0.015
 17.840	 -1.125	  0.015
 17.844	 -1.120	  0.010
 17.848	 -1.095	  0.000
 17.852	 -1.075	 -0.015
 17.856	 -1.015	 -0.010
 17.860	 -0.980	 -0.030
 17.864	 -0.920	 -0.040
 17.868	 -0.900	 -0.030
 17.872	 -0.885	 -0.010
 17.876	 -0.845	  0.035
 17.880	 -0.780	  0.035
 17.884	 -0.720	  0.060
 17.888	 -0.655	  0.060
 17.892	 -0.590	  0.075
 17.896	 -0.520	  0.110
 17.900	 -0.495	  0.115
 17.904	 -0.450	  0.130
 17.908	 -0.420	  0.170
 17.912	 -0.390	  0.215
 17.916	 -0.390	  0.230
 17.920	 -0.430	  0.255
 17.924	 -0.415	  0.255
 17.928	 -0.400	  0.270
 17.932	 -0.395	  0.245
 17.936	 -0.395	  0.285
 17.940	 -0.380	  0.270
 17.944	 -0.365	  0.290
 17.948	 -0.355	  0.280
 17.952	 -0.350	  0.285
 17.956	 -0.365	  0.275
 17.960	 -0.355	  0.280
 17.964	 -0.360	  0.275
 17.968	 -0.385	  0.280
 17.972	 -0.395	  0.275
 17.976	 -0.390	  0.270
 17.980	 -0.400	  0.270
 17.984	 -0.395	  0.280
 17.988	 -0.380	  0.260
 17.992	 -0.375	  0.235
 17.996	 -0.380	  0.260
 18.000	 -0.390	  0.275
 18.004	 -0.405	  0.270
 18.008	 -0.415	  0.260
 18.012	 -0.425	  0.255
 18.016	 -0.435	  0.265
 18.020	 -0.405	  0.230
 18.024	 -0.420	  0.225
 18.028	 -0.440	  0.210
 18.032	 -0.420	  0.210
 18.036	 -0.420	  0.220
 18.040	 -0.420	  0.210
 18.044	 -0.455	  0.225
 18.048	 -0.460	  0.215
 18.052	 -0.435	  0.205
 18.056	 -0.455	  0.205
 18.060	 -0.435	  0.205
 18.064	 -0.465	  0.210
 18.068	 -0.450	  0.195
 18.072	 -0.450	  0.195
 18.076	 -0.420	  0.185
 18.080	 -0.440	  0.185
 18.084	 -0.430	  0.180
 18.088	 -0.420	  0.180
 18.092	 -0.415	  0.155
 18.096	 -0.415	  0.155
 18.100	 -0.410	  0.165
 18.104	 -0.455	  0.190
 18.108	 -0.385	  0.230
 18.112	 -0.160	  0.260
 18.116	  0.200	  0.225
 18.120	  0.540	  0.105
 18.124	  0.740	 -0.040
 18.128	  0.610	 -0.175
 18.132	 -0.050	 -0.205
 18.136	 -1.015	 -0.310
 18.140	 -1.655	 -0.605
 18.144	 -1.920	 -0.985
 18.148	 -1.895	 -1.275
 18.152	 -1.770	 -1.475
 18.156	 -1.580	 -1.555
 18.160	 -1.270	 -1.510
 18.164	 -0.925	 -1.325
 18.168	 -0.595	 -1.055
 18.172	 -0.400	 -0.735
 18.176	 -0.315	 -0.415
 18.180	 -0.285	 -0.185
 18.184	 -0.280	 -0.015
 18.188	 -0.315	  0.115
 18.192	 -0.340	  0.190
 18.196	 -0.330	  0.270
 18.200	 -0.320	  0.255
 18.204	 -0.310	  0.220
 18.208	 -0.285	  0.200
 18.212	 -0.260	  0.245
 18.216	 -0.245	  0.270
 18.220	 -0.250	  0.270
 18.224	 -0.295	  0.295
 18.228	 -0.305	  0.280
 18.232	 -0.340	  0.270
 18.236	 -0.360	  0.240
 18.240	 -0.380	  0.220
 18.244	 -0.400	  0.190
 18.248	 -0.400	  0.175
 18.252	 -0.385	  0.175
 18.256	 -0.390	  0.155
 18.260	 -0.400	  0.145
 18.264	 -0.405	  0.145
 18.268	 -0.400	  0.155
 18.272	 -0.410	  0.130
 18.276	 -0.435	  0.125
 18.280	 -0.465	  0.095
 18.284	 -0.480	  0.120
 18.288	 -0.500	  0.105
 18.292	 -0.500	  0.115
 18.296	 -0.515	  0.105
 18.300	 -0.515	  0.080
 18.304	 -0.520	  0.070
 18.308	 -0.540	  0.100
 18.312	 -0.565	  0.085
 18.316	 -0.575	  0.095
 18.320	 -0.600	  0.080
 18.324	 -0.620	  0.055
 18.328	 -0.665	  0.055
 18.332	 -0.680	  0.055
 18.336	 -0.700	  0.035
 18.340	 -0.700	  0.035
 18.344	 -0.695	  0.035
 18.348	 -0.725	  0.015
 18.352	 -0.735	 -0.005
 18.356	 -0.760	  0.000
 18.360	 -0.795	 -0.010
 18.364	 -0.790	 -0.020
 18.368	 -0.795	 -0.045
 18.372	 -0.805	 -0.065
 18.376	 -0.770	 -0.085
 18.380	 -0.765	 -0.085
 18.384	 -0.745	 -0.095
 18.388	 -0.700	 -0.090
 18.392	 -0.655	 -0.110
 18.396	 -0.620	 -0.100
 18.400	 -0.580	 -0.110
 18.404	 -0.545	 -0.100
 18.408	 -0.510	 -0.080
 18.412	 -0.465	 -0.070
 18.416	 -0.415	 -0.060
 18.420	 -0.370	 -0.045
 18.424	 -0.350	 -0.030
 18.428	 -0.290	  0.010
 18.432	 -0.280	  0.030
 18.436	 -0.240	  0.070
 18.440	 -0.245	  0.100
 18.444	 -0.230	  0.105
 18.448	 -0.200	  0.130
 18.452	 -0.205	  0.155
 18.456	 -0.230	  0.175
 18.460	 -0.245	  0.180
 18.464	 -0.265	  0.185
 18.468	 -0.290	  0.230
 18.472	 -0.300	  0.205
 18.476	 -0.305	  0.215
 18.480	 -0.315	  0.210
 18.484	 -0.300	  0.195
 18.488	 -0.305	  0.200
 18.492	 -0.310	  0.210
 18.496	 -0.300	  0.210
 18.500	 -0.320	  0.200
 18.504	 -0.330	  0.215
 18.508	 -0.345	  0.230
 18.512	 -0.355	  0.230
 18.516	 -0.365	  0.220
 18.520	 -0.355	  0.225
 18.524	 -0.345	  0.225
 18.528	 -0.355	  0.200
 18.532	 -0.315	  0.205
 18.536	 -0.345	  0.215
 18.540	 -0.345	  0.165
 18.544	 -0.360	  0.200
 18.548	 -0.370	  0.200
 18.552	 -0.365	  0.185
 18.556	 -0.320	  0.205
 18.560	 -0.255	  0.205
 18.564	 -0.240	  0.210
 18.568	 -0.220	  0.195
 18.572	 -0.195	  0.175
 18.576	 -0.200	  0.190
 18.580	 -0.210	  0.190
 18.584	 -0.210	  0.175
 18.588	 -0.215	  0.190
 18.592	 -0.225	  0.190
 18.596	 -0.250	  0.200
 18.600	 -0.240	  0.200
 18.604	 -0.250	  0.180
 18.608	 -0.230	  0.180
 18.612	 -0.210	  0.165
 18.616	 -0.195	  0.190
 18.620	 -0.170	  0.205
 18.624	 -0.170	  0.180
 18.628	 -0.170	  0.170
 18.632	 -0.145	  0.160
 18.636	 -0.135	  0.180
 18.640	 -0.120	  0.190
 18.644	 -0.065	  0.185
 18.648	  0.000	  0.195
 18.652	  0.070	  0.185
 18.656	  0.140	  0.215
 18.660	  0.155	  0.275
 18.664	  0.145	  0.305
 18.668	  0.130	  0.335
 18.672	  0.085	  0.300
 18.676	  0.060	  0.280
 18.680	  0.030	  0.245
 18.684	 -0.040	  0.230
 18.688	 -0.085	  0.230
 18.692	 -0.145	  0.220
 18.696	 -0.205	  0.220
 18.700	 -0.215	  0.220
 18.704	 -0.230	  0.210
 18.708	 -0.260	  0.220
 18.712	 -0.260	  0.185
 18.716	 -0.275	  0.135
 18.720	 -0.275	  0.110
 18.724	 -0.285	  0.120
 18.728	 -0.310	  0.100
 18.732	 -0.285	  0.105
 18.736	 -0.290	  0.090
 18.740	 -0.225	  0.090
 18.744	 -0.125	  0.085
 18.748	 -0.045	  0.135
 18.752	  0.065	  0.190
 18.756	  0.345	  0.250
 18.760	  0.625	  0.220
 18.764	  0.830	  0.195
 18.768	  0.980	  0.115
 18.772	  1.065	 -0.050
 18.776	  0.715	 -0.435
 18.780	 -0.160	 -0.870
 18.784	 -1.000	 -1.295
 18.788	 -1.510	 -1.565
 18.792	 -1.650	 -1.805
 18.796	 -1.550	 -2.010
 18.800	 -1.310	 -2.085
 18.804	 -1.020	 -1.975
 18.808	 -0.740	 -1.745
 18.812	 -0.565	 -1.380
 18.816	 -0.475	 -0.965
 18.820	 -0.425	 -0.635
 18.824	 -0.375	 -0.355
 18.828	 -0.355	 -0.130
 18.832	 -0.340	  0.000
 18.836	 -0.325	  0.060
 18.840	 -0.305	  0.085
 18.844	 -0.305	  0.130
 18.848	 -0.320	  0.120
 18.852	 -0.310	  0.130
 18.856	 -0.320	  0.145
 18.860	 -0.340	  0.145
 18.864	 -0.345	  0.190
 18.868	 -0.355	  0.175
 18.872	 -0.330	  0.165
 18.876	 -0.330	  0.155
 18.880	 -0.320	  0.160
 18.884	 -0.310	  0.165
 18.888	 -0.320	  0.190
 18.892	 -0.340	  0.205
 18.896	 -0.350	  0.215
 18.900	 -0.330	  0.215
 18.904	 -0.355	  0.210
 18.908	 -0.370	  0.215
 18.912	 -0.365	  0.230
 18.916	 -0.385	  0.240
 18.920	 -0.400	  0.230
 18.924	 -0.370	  0.240
 18.928	 -0.395	  0.205
 18.932	 -0.395	  0.230
 18.936	 -0.400	  0.225
 18.940	 -0.420	  0.215
 18.944	 -0.460	  0.210
 18.948	 -0.485	  0.185
 18.952	 -0.505	  0.205
 18.956	 -0.550	  0.195
 18.960	 -0.550	  0.190
 18.964	 -0.550	  0.175
 18.968	 -0.575	  0.165
 18.972	 -0.565	  0.175
 18.976	 -0.565	  0.170
 18.980	 -0.600	  0.150
 18.984	 -0.630	  0.160
 18.988	 -0.685	  0.170
 18.992	 -0.700	  0.110
 18.996	 -0.705	  0.110
 19.000	 -0.720	  0.095
 19.004	 -0.740	  0.090
 19.008	 -0.750	  0.075
 19.012	 -0.745	  0.060
 19.016	 -0.745	  0.080
 19.020	 -0.755	  0.095
 19.024	 -0.740	  0.075
 19.028	 -0.785	  0.035
 19.032	 -0.800	  0.040
 19.036	 -0.790	  0.035
 19.040	 -0.785	  0.010
 19.044	 -0.770	  0.015
 19.048	 -0.740	  0.020
 19.052	 -0.680	  0.010
 19.056	 -0.640	  0.005
 19.060	 -0.605	 -0.005
 19.064	 -0.540	  0.000
 19.068	 -0.480	 -0.010
 19.072	 -0.425	 -0.015
 19.076	 -0.390	 -0.015
 19.080	 -0.340	  0.020
 19.084	 -0.315	  0.025
 19.088	 -0.250	  0.045
 19.092	 -0.225	  0.085
 19.096	 -0.190	  0.085
 19.100	 -0.140	  0.115
 19.104	 -0.115	  0.130
 19.108	 -0.085	  0.165
 19.112	 -0.095	  0.185
 19.116	 -0.085	  0.195
 19.120	 -0.075	  0.230
 19.124	 -0.080	  0.235
 19.128	 -0.085	  0.225
 19.132	 -0.075	  0.250
 19.136	 -0.080	  0.240
 19.140	 -0.080	  0.260
 19.144	 -0.050	  0.270
 19.148	 -0.075	  0.260
 19.152	 -0.065	  0.270
 19.156	 -0.070	  0.265
 19.160	 -0.065	  0.270
 19.164	 -0.080	  0.260
 19.168	 -0.090	  0.255
 19.172	 -0.100	  0.280
 19.176	 -0.100	  0.270
 19.180	 -0.090	  0.270
 19.184	 -0.100	  0.265
 19.188	 -0.105	  0.275
 19.192	 -0.090	  0.270
 19.196	 -0.090	  0.265
 19.200	 -0.090	  0.240
 19.204	 -0.105	  0.250
 19.208	 -0.140	  0.240
 19.212	 -0.125	  0.250
 19.216	 -0.125	  0.260
 19.220	 -0.135	  0.260
 19.224	 -0.145	  0.235
 19.228	 -0.155	  0.260
 19.232	 -0.125	  0.240
 19.236	 -0.130	  0.210
 19.240	 -0.105	  0.210
 19.244	 -0.130	  0.205
 19.248	 -0.150	  0.200
 19.252	 -0.145	  0.200
 19.256	 -0.150	  0.215
 19.260	 -0.180	  0.195
 19.264	 -0.185	  0.220
 19.268	 -0.170	  0.205
 19.272	 -0.180	  0.200
 19.276	 -0.160	  0.200
 19.280	 -0.155	  0.215
 19.284	 -0.155	  0.225
 19.288	 -0.170	  0.210
 19.292	 -0.150	  0.205
 19.296	 -0.175	  0.215
 19.300	 -0.175	  0.215
 19.304	 -0.185	  0.210
 19.308	 -0.190	  0.205
 19.312	 -0.185	  0.190
 19.316	 -0.170	  0.190
 19.320	 -0.170	  0.170
 19.324	 -0.160	  0.205
 19.328	 -0.160	  0.190
 19.332	 -0.155	  0.185
 19.336	 -0.160	  0.185
 19.340	 -0.180	  0.175
 19.344	 -0.215	  0.175
 19.348	 -0.215	  0.170
 19.352	 -0.215	  0.185
 19.356	 -0.190	  0.160
 19.360	 -0.190	  0.175
 19.364	 -0.185	  0.175
 19.368	 -0.195	  0.180
 19.372	 -0.190	  0.185
 19.376	 -0.180	  0.190
 19.380	 -0.185	  0.180
 19.384	 -0.190	  0.165
 19.388	 -0.205	  0.180
 19.392	 -0.210	  0.160
 19.396	 -0.220	  0.160
 19.400	 -0.210	  0.165
 19.404	 -0.200	  0.145
 19.408	 -0.175	  0.140
 19.412	 -0.170	  0.140
 19.416	 -0.170	  0.140
 19.420	 -0.190	  0.145
 19.424	 -0.200	  0.135
 19.428	 -0.220	  0.140
 19.432	 -0.220	  0.130
 19.436	 -0.230	  0.125
 19.440	 -0.220	  0.115
 19.444	 -0.215	  0.130
 19.448	 -0.225	  0.130
 19.452	 -0.210	  0.125
 19.456	 -0.190	  0.120
 19.460	 -0.185	  0.125
 19.464	 -0.195	  0.130
 19.468	 -0.195	  0.140
 19.472	 -0.200	  0.145
 19.476	 -0.205	  0.105
 19.480	 -0.220	  0.100
 19.484	 -0.220	  0.090
 19.488	 -0.230	  0.105
 19.492	 -0.225	  0.100
 19.496	 -0.205	  0.120
 19.500	 -0.205	  0.120
 19.504	 -0.215	  0.115
 19.508	 -0.225	  0.095
 19.512	 -0.220	  0.105
 19.516	 -0.200	  0.100
 19.520	 -0.220	  0.110
 19.524	 -0.240	  0.150
 19.528	 -0.220	  0.115
 19.532	 -0.240	  0.090
 19.536	 -0.225	  0.070
 19.540	 -0.240	  0.095
 19.544	 -0.205	  0.100
 19.548	 -0.200	  0.110
 19.552	 -0.200	  0.110
 19.556	 -0.210	  0.120
 19.560	 -0.200	  0.100
 19.564	 -0.200	  0.110
 19.568	 -0.180	  0.110
 19.572	 -0.160	  0.090
 19.576	 -0.100	  0.105
 19.580	 -0.095	  0.120
 19.584	 -0.105	  0.160
 19.588	 -0.080	  0.160
 19.592	 -0.060	  0.175
 19.596	 -0.040	  0.165
 19.600	 -0.005	  0.170
 19.604	 -0.025	  0.200
 19.608	 -0.020	  0.185
 19.612	  0.010	  0.170
 19.616	  0.000	  0.135
 19.620	 -0.045	  0.120
 19.624	 -0.055	  0.110
 19.628	 -0.085	  0.110
 19.632	 -0.115	  0.070
 19.636	 -0.160	  0.065
 19.640	 -0.190	  0.100
 19.644	 -0.210	  0.095
 19.648	 -0.225	  0.085
 19.652	 -0.250	  0.090
 19.656	 -0.300	  0.105
 19.660	 -0.300	  0.080
 19.664	 -0.260	  0.055
 19.668	 -0.275	  0.065
 19.672	 -0.240	  0.060
 19.676	 -0.180	  0.060
 19.680	 -0.125	  0.065
 19.684	 -0.055	  0.085
 19.688	  0.135	  0.150
 19.692	  0.440	  0.180
 19.696	  0.705	  0.170
 19.700	  0.905	  0.140
 19.704	  1.080	  0.100
 19.708	  1.070	 -0.070
 19.712	  0.600	 -0.535
 19.716	 -0.310	 -1.000
 19.720	 -1.100	 -1.390
 19.724	 -1.515	 -1.670
 19.728	 -1.590	 -1.900
 19.732	 -1.470	 -2.100
 19.736	 -1.230	 -2.110
 19.740	 -0.930	 -1.960
 19.744	 -0.705	 -1.640
 19.748	 -0.515	 -1.300
 19.752	 -0.430	 -0.925
 19.756	 -0.370	 -0.560
 19.760	 -0.345	 -0.300
 19.764	 -0.300	 -0.110
 19.768	 -0.295	  0.000
 19.772	 -0.300	  0.055
 19.776	 -0.280	  0.090
 19.780	 -0.290	  0.110
 19.784	 -0.330	  0.135
 19.788	 -0.310	  0.125
 19.792	 -0.325	  0.155
 19.796	 -0.330	  0.135
 19.800	 -0.330	  0.150
 19.804	 -0.335	  0.170
 19.808	 -0.330	  0.135
 19.812	 -0.320	  0.145
 19.816	 -0.305	  0.170
 19.820	 -0.315	  0.175
 19.824	 -0.320	  0.180
 19.828	 -0.350	  0.165
 19.832	 -0.360	  0.150
 19.836	 -0.375	  0.175
 19.840	 -0.390	  0.180
 19.844	 -0.370	  0.175
 19.848	 -0.375	  0.185
 19.852	 -0.380	  0.165
 19.856	 -0.345	  0.170
 19.860	 -0.355	  0.175
 19.864	 -0.355	  0.180
 19.868	 -0.380	  0.165
 19.872	 -0.395	  0.155
 19.876	 -0.430	  0.150
 19.880	 -0.450	  0.150
 19.884	 -0.470	  0.150
 19.888	 -0.495	  0.150
 19.892	 -0.515	  0.140
 19.896	 -0.515	  0.145
 19.900	 -0.525	  0.150
 19.904	 -0.520	  0.115
 19.908	 -0.555	  0.140
 19.912	 -0.555	  0.115
 19.916	 -0.560	  0.115
 19.920	 -0.595	  0.095
 19.924	 -0.610	  0.095
 19.928	 -0.640	  0.080
 19.932	 -0.655	  0.095
 19.936	 -0.670	  0.085
 19.940	 -0.670	  0.050
 19.944	 -0.670	  0.065
 19.948	 -0.680	  0.035
 19.952	 -0.685	  0.045
 19.956	 -0.695	  0.005
 19.960	 -0.730	  0.005
 19.964	 -0.725	  0.015
 19.968	 -0.740	  0.000
 19.972	 -0.760	 -0.020
 19.976	 -0.780	 -0.030
 19.980	 -0.780	 -0.035
 19.984	 -0.750	 -0.040
 19.988	 -0.730	 -0.060
