time	ignal 0	ignal 1
(sec)	(mV)	(mV)
  0.000	 -0.015	 -0.320
  0.004	 -0.045	 -0.350
  0.008	 -0.030	 -0.345
  0.012	 -0.025	 -0.360
  0.016	 -0.005	 -0.365
  0.020	 -0.045	 -0.360
  0.024	 -0.015	 -0.340
  0.028	 -0.025	 -0.340
  0.032	 -0.040	 -0.340
  0.036	 -0.045	 -0.360
  0.040	 -0.050	 -0.365
  0.044	 -0.040	 -0.345
  0.048	 -0.045	 -0.350
  0.052	 -0.035	 -0.345
  0.056	 -0.045	 -0.360
  0.060	 -0.050	 -0.360
  0.064	 -0.040	 -0.355
  0.068	 -0.045	 -0.335
  0.072	 -0.055	 -0.335
  0.076	 -0.050	 -0.290
  0.080	 -0.035	 -0.240
  0.084	 -0.040	 -0.230
  0.088	 -0.050	 -0.185
  0.092	 -0.060	 -0.175
  0.096	 -0.040	 -0.170
  0.100	 -0.010	 -0.160
  0.104	  0.000	 -0.175
  0.108	  0.035	 -0.175
  0.112	  0.035	 -0.160
  0.116	  0.060	 -0.180
  0.120	  0.070	 -0.170
  0.124	  0.075	 -0.155
  0.128	  0.050	 -0.135
  0.132	  0.040	 -0.160
  0.136	  0.000	 -0.185
  0.140	 -0.015	 -0.230
  0.144	 -0.015	 -0.280
  0.148	 -0.050	 -0.300
  0.152	 -0.090	 -0.305
  0.156	 -0.085	 -0.300
  0.160	 -0.100	 -0.275
  0.164	 -0.090	 -0.260
  0.168	 -0.125	 -0.285
  0.172	 -0.125	 -0.275
  0.176	 -0.125	 -0.285
  0.180	 -0.110	 -0.290
  0.184	 -0.090	 -0.325
  0.188	 -0.070	 -0.345
  0.192	 -0.050	 -0.345
  0.196	 -0.085	 -0.360
  0.200	 -0.070	 -0.400
  0.204	 -0.075	 -0.390
  0.208	 -0.055	 -0.370
  0.212	 -0.030	 -0.380
  0.216	 -0.010	 -0.375
  0.220	 -0.010	 -0.375
  0.224	 -0.020	 -0.380
  0.228	 -0.040	 -0.385
  0.232	 -0.005	 -0.365
  0.236	 -0.025	 -0.365
  0.240	 -0.035	 -0.365
  0.244	 -0.025	 -0.350
  0.248	 -0.025	 -0.365
  0.252	 -0.030	 -0.360
  0.256	 -0.015	 -0.360
  0.260	 -0.025	 -0.340
  0.264	 -0.030	 -0.335
  0.268	 -0.035	 -0.320
  0.272	 -0.050	 -0.280
  0.276	 -0.045	 -0.220
  0.280	 -0.060	 -0.215
  0.284	 -0.045	 -0.140
  0.288	 -0.045	  0.070
  0.292	 -0.030	  0.350
  0.296	  0.000	  0.625
  0.300	  0.050	  0.785
  0.304	 -0.005	  0.880
  0.308	 -0.025	  0.890
  0.312	 -0.070	  0.790
  0.316	 -0.105	  0.555
  0.320	 -0.185	  0.195
  0.324	 -0.405	 -0.105
  0.328	 -0.690	 -0.145
  0.332	 -1.040	  0.040
  0.336	 -1.310	  0.085
  0.340	 -1.475	 -0.105
  0.344	 -1.545	 -0.420
  0.348	 -1.405	 -0.670
  0.352	 -1.055	 -0.780
  0.356	 -0.610	 -0.765
  0.360	 -0.255	 -0.735
  0.364	 -0.145	 -0.595
  0.368	 -0.125	 -0.530
  0.372	 -0.140	 -0.505
  0.376	 -0.165	 -0.505
  0.380	 -0.150	 -0.515
  0.384	 -0.100	 -0.510
  0.388	 -0.065	 -0.505
  0.392	 -0.005	 -0.500
  0.396	  0.030	 -0.500
  0.400	  0.085	 -0.450
  0.404	  0.060	 -0.495
  0.408	  0.075	 -0.500
  0.412	  0.055	 -0.510
  0.416	  0.060	 -0.470
  0.420	  0.070	 -0.475
  0.424	  0.075	 -0.470
  0.428	  0.105	 -0.475
  0.432	  0.095	 -0.475
  0.436	  0.110	 -0.470
  0.440	  0.095	 -0.480
  0.444	  0.115	 -0.460
  0.448	  0.110	 -0.480
  0.452	  0.100	 -0.465
  0.456	  0.100	 -0.480
  0.460	  0.100	 -0.490
  0.464	  0.115	 -0.490
  0.468	  0.115	 -0.490
  0.472	  0.110	 -0.470
  0.476	  0.120	 -0.505
  0.480	  0.105	 -0.480
  0.484	  0.115	 -0.460
  0.488	  0.115	 -0.485
  0.492	  0.120	 -0.485
  0.496	  0.110	 -0.495
  0.500	  0.100	 -0.490
  0.504	  0.110	 -0.490
  0.508	  0.100	 -0.510
  0.512	  0.080	 -0.505
  0.516	  0.080	 -0.485
  0.520	  0.100	 -0.500
  0.524	  0.080	 -0.505
  0.528	  0.095	 -0.510
  0.532	  0.110	 -0.505
  0.536	  0.095	 -0.490
  0.540	  0.085	 -0.505
  0.544	  0.090	 -0.510
  0.548	  0.095	 -0.475
  0.552	  0.105	 -0.490
  0.556	  0.100	 -0.470
  0.560	  0.115	 -0.465
  0.564	  0.090	 -0.450
  0.568	  0.080	 -0.435
  0.572	  0.085	 -0.415
  0.576	  0.070	 -0.390
  0.580	  0.065	 -0.385
  0.584	  0.090	 -0.365
  0.588	  0.090	 -0.330
  0.592	  0.060	 -0.320
  0.596	  0.045	 -0.325
  0.600	  0.055	 -0.300
  0.604	  0.050	 -0.290
  0.608	  0.015	 -0.280
  0.612	  0.025	 -0.270
  0.616	  0.020	 -0.250
  0.620	  0.020	 -0.260
  0.624	  0.010	 -0.255
  0.628	  0.030	 -0.255
  0.632	  0.015	 -0.265
  0.636	  0.005	 -0.255
  0.640	  0.005	 -0.265
  0.644	  0.005	 -0.275
  0.648	  0.015	 -0.255
  0.652	  0.005	 -0.255
  0.656	  0.010	 -0.265
  0.660	  0.015	 -0.280
  0.664	  0.010	 -0.300
  0.668	  0.030	 -0.285
  0.672	  0.030	 -0.290
  0.676	  0.020	 -0.285
  0.680	  0.005	 -0.285
  0.684	  0.025	 -0.305
  0.688	  0.015	 -0.290
  0.692	  0.035	 -0.300
  0.696	  0.035	 -0.305
  0.700	  0.040	 -0.295
  0.704	  0.020	 -0.285
  0.708	  0.030	 -0.320
  0.712	  0.035	 -0.305
  0.716	  0.050	 -0.320
  0.720	  0.065	 -0.315
  0.724	  0.055	 -0.315
  0.728	  0.045	 -0.325
  0.732	  0.070	 -0.315
  0.736	  0.065	 -0.320
  0.740	  0.050	 -0.315
  0.744	  0.060	 -0.315
  0.748	  0.055	 -0.320
  0.752	  0.050	 -0.320
  0.756	  0.050	 -0.300
  0.760	  0.050	 -0.290
  0.764	  0.050	 -0.315
  0.768	  0.060	 -0.335
  0.772	  0.050	 -0.315
  0.776	  0.055	 -0.315
  0.780	  0.040	 -0.315
  0.784	  0.065	 -0.310
  0.788	  0.050	 -0.305
  0.792	  0.045	 -0.305
  0.796	  0.045	 -0.285
  0.800	  0.035	 -0.295
  0.804	  0.050	 -0.290
  0.808	  0.045	 -0.310
  0.812	  0.035	 -0.280
  0.816	  0.040	 -0.280
  0.820	  0.035	 -0.300
  0.824	  0.035	 -0.310
  0.828	  0.035	 -0.300
  0.832	  0.025	 -0.315
  0.836	  0.040	 -0.310
  0.840	  0.035	 -0.310
  0.844	  0.060	 -0.315
  0.848	  0.025	 -0.295
  0.852	  0.040	 -0.285
  0.856	  0.045	 -0.285
  0.860	  0.025	 -0.310
  0.864	  0.025	 -0.300
  0.868	  0.040	 -0.285
  0.872	  0.030	 -0.280
  0.876	  0.020	 -0.295
  0.880	  0.020	 -0.290
  0.884	  0.015	 -0.305
  0.888	  0.020	 -0.305
  0.892	  0.020	 -0.310
  0.896	  0.005	 -0.315
  0.900	  0.015	 -0.290
  0.904	  0.010	 -0.295
  0.908	  0.040	 -0.305
  0.912	  0.010	 -0.320
  0.916	  0.015	 -0.300
  0.920	  0.025	 -0.305
  0.924	  0.015	 -0.320
  0.928	  0.010	 -0.305
  0.932	  0.020	 -0.300
  0.936	 -0.005	 -0.290
  0.940	  0.000	 -0.315
  0.944	  0.015	 -0.305
  0.948	  0.005	 -0.310
  0.952	  0.020	 -0.305
  0.956	  0.010	 -0.300
  0.960	  0.025	 -0.290
  0.964	  0.005	 -0.280
  0.968	  0.020	 -0.275
  0.972	  0.020	 -0.245
  0.976	  0.010	 -0.200
  0.980	  0.020	 -0.175
  0.984	  0.015	 -0.145
  0.988	  0.020	 -0.130
  0.992	  0.030	 -0.130
  0.996	  0.055	 -0.135
  1.000	  0.090	 -0.100
  1.004	  0.085	 -0.135
  1.008	  0.105	 -0.165
  1.012	  0.125	 -0.140
  1.016	  0.105	 -0.145
  1.020	  0.095	 -0.140
  1.024	  0.075	 -0.140
  1.028	  0.080	 -0.130
  1.032	  0.065	 -0.170
  1.036	  0.040	 -0.225
  1.040	  0.015	 -0.285
  1.044	 -0.020	 -0.285
  1.048	 -0.020	 -0.265
  1.052	 -0.035	 -0.245
  1.056	 -0.035	 -0.265
  1.060	 -0.075	 -0.240
  1.064	 -0.085	 -0.235
  1.068	 -0.080	 -0.245
  1.072	 -0.090	 -0.235
  1.076	 -0.060	 -0.265
  1.080	 -0.050	 -0.290
  1.084	 -0.035	 -0.300
  1.088	 -0.045	 -0.320
  1.092	 -0.040	 -0.330
  1.096	 -0.045	 -0.360
  1.100	 -0.030	 -0.340
  1.104	 -0.030	 -0.335
  1.108	 -0.010	 -0.320
  1.112	  0.005	 -0.325
  1.116	  0.025	 -0.340
  1.120	 -0.005	 -0.340
  1.124	  0.000	 -0.315
  1.128	  0.000	 -0.330
  1.132	 -0.015	 -0.310
  1.136	  0.000	 -0.310
  1.140	 -0.010	 -0.295
  1.144	  0.000	 -0.320
  1.148	 -0.030	 -0.315
  1.152	 -0.010	 -0.310
  1.156	 -0.030	 -0.300
  1.160	 -0.025	 -0.280
  1.164	 -0.010	 -0.260
  1.168	 -0.015	 -0.225
  1.172	 -0.035	 -0.190
  1.176	 -0.015	 -0.160
  1.180	 -0.025	 -0.015
  1.184	 -0.020	  0.235
  1.188	 -0.010	  0.510
  1.192	  0.045	  0.715
  1.196	  0.040	  0.830
  1.200	 -0.005	  0.880
  1.204	 -0.045	  0.830
  1.208	 -0.060	  0.665
  1.212	 -0.130	  0.370
  1.216	 -0.265	  0.020
  1.220	 -0.525	 -0.080
  1.224	 -0.875	  0.070
  1.228	 -1.210	  0.200
  1.232	 -1.440	  0.075
  1.236	 -1.515	 -0.215
  1.240	 -1.475	 -0.515
  1.244	 -1.200	 -0.650
  1.248	 -0.750	 -0.725
  1.252	 -0.335	 -0.690
  1.256	 -0.115	 -0.585
  1.260	 -0.080	 -0.490
  1.264	 -0.095	 -0.425
  1.268	 -0.125	 -0.435
  1.272	 -0.110	 -0.430
  1.276	 -0.095	 -0.440
  1.280	 -0.085	 -0.435
  1.284	 -0.025	 -0.440
  1.288	  0.070	 -0.415
  1.292	  0.095	 -0.440
  1.296	  0.090	 -0.415
  1.300	  0.065	 -0.415
  1.304	  0.090	 -0.410
  1.308	  0.105	 -0.405
  1.312	  0.115	 -0.400
  1.316	  0.130	 -0.405
  1.320	  0.115	 -0.390
  1.324	  0.110	 -0.400
  1.328	  0.155	 -0.415
  1.332	  0.125	 -0.400
  1.336	  0.130	 -0.405
  1.340	  0.115	 -0.385
  1.344	  0.110	 -0.390
  1.348	  0.120	 -0.405
  1.352	  0.120	 -0.420
  1.356	  0.125	 -0.390
  1.360	  0.110	 -0.400
  1.364	  0.105	 -0.405
  1.368	  0.125	 -0.405
  1.372	  0.140	 -0.400
  1.376	  0.140	 -0.405
  1.380	  0.140	 -0.380
  1.384	  0.120	 -0.400
  1.388	  0.125	 -0.410
  1.392	  0.125	 -0.400
  1.396	  0.140	 -0.400
  1.400	  0.110	 -0.415
  1.404	  0.120	 -0.410
  1.408	  0.130	 -0.415
  1.412	  0.120	 -0.415
  1.416	  0.100	 -0.410
  1.420	  0.110	 -0.430
  1.424	  0.100	 -0.420
  1.428	  0.110	 -0.420
  1.432	  0.090	 -0.430
  1.436	  0.120	 -0.425
  1.440	  0.085	 -0.415
  1.444	  0.085	 -0.400
  1.448	  0.105	 -0.375
  1.452	  0.090	 -0.385
  1.456	  0.100	 -0.360
  1.460	  0.090	 -0.370
  1.464	  0.080	 -0.360
  1.468	  0.075	 -0.320
  1.472	  0.065	 -0.335
  1.476	  0.075	 -0.315
  1.480	  0.075	 -0.280
  1.484	  0.045	 -0.275
  1.488	  0.055	 -0.280
  1.492	  0.035	 -0.235
  1.496	  0.055	 -0.260
  1.500	  0.045	 -0.230
  1.504	  0.035	 -0.195
  1.508	  0.050	 -0.205
  1.512	  0.035	 -0.215
  1.516	  0.020	 -0.200
  1.520	  0.005	 -0.200
  1.524	  0.025	 -0.195
  1.528	  0.025	 -0.185
  1.532	  0.010	 -0.190
  1.536	  0.015	 -0.180
  1.540	  0.000	 -0.180
  1.544	  0.020	 -0.185
  1.548	  0.020	 -0.195
  1.552	  0.010	 -0.225
  1.556	  0.005	 -0.180
  1.560	  0.005	 -0.195
  1.564	  0.045	 -0.195
  1.568	  0.015	 -0.205
  1.572	  0.035	 -0.195
  1.576	  0.030	 -0.215
  1.580	  0.035	 -0.195
  1.584	  0.045	 -0.200
  1.588	  0.035	 -0.215
  1.592	  0.035	 -0.205
  1.596	  0.025	 -0.210
  1.600	  0.065	 -0.205
  1.604	  0.045	 -0.205
  1.608	  0.055	 -0.205
  1.612	  0.055	 -0.210
  1.616	  0.070	 -0.220
  1.620	  0.050	 -0.210
  1.624	  0.055	 -0.210
  1.628	  0.050	 -0.205
  1.632	  0.050	 -0.200
  1.636	  0.040	 -0.210
  1.640	  0.050	 -0.200
  1.644	  0.070	 -0.195
  1.648	  0.070	 -0.195
  1.652	  0.045	 -0.205
  1.656	  0.080	 -0.215
  1.660	  0.080	 -0.185
  1.664	  0.080	 -0.205
  1.668	  0.070	 -0.215
  1.672	  0.060	 -0.190
  1.676	  0.065	 -0.190
  1.680	  0.075	 -0.190
  1.684	  0.060	 -0.190
  1.688	  0.070	 -0.215
  1.692	  0.045	 -0.210
  1.696	  0.070	 -0.205
  1.700	  0.055	 -0.185
  1.704	  0.035	 -0.195
  1.708	  0.055	 -0.195
  1.712	  0.055	 -0.200
  1.716	  0.050	 -0.215
  1.720	  0.060	 -0.190
  1.724	  0.060	 -0.215
  1.728	  0.025	 -0.205
  1.732	  0.050	 -0.205
  1.736	  0.015	 -0.200
  1.740	  0.035	 -0.215
  1.744	  0.030	 -0.190
  1.748	  0.020	 -0.210
  1.752	  0.030	 -0.220
  1.756	  0.030	 -0.205
  1.760	  0.015	 -0.180
  1.764	  0.010	 -0.180
  1.768	  0.030	 -0.200
  1.772	  0.020	 -0.170
  1.776	  0.030	 -0.170
  1.780	  0.020	 -0.190
  1.784	  0.015	 -0.190
  1.788	  0.025	 -0.195
  1.792	  0.025	 -0.190
  1.796	  0.015	 -0.190
  1.800	  0.035	 -0.180
  1.804	  0.025	 -0.195
  1.808	  0.035	 -0.180
  1.812	  0.025	 -0.185
  1.816	  0.000	 -0.190
  1.820	  0.030	 -0.175
  1.824	  0.025	 -0.180
  1.828	  0.030	 -0.195
  1.832	  0.015	 -0.185
  1.836	  0.010	 -0.180
  1.840	  0.010	 -0.170
  1.844	  0.005	 -0.165
  1.848	  0.020	 -0.165
  1.852	  0.005	 -0.120
  1.856	 -0.005	 -0.110
  1.860	  0.025	 -0.080
  1.864	  0.045	 -0.045
  1.868	  0.020	 -0.025
  1.872	  0.015	 -0.020
  1.876	  0.020	 -0.030
  1.880	  0.060	 -0.015
  1.884	  0.080	 -0.005
  1.888	  0.120	 -0.010
  1.892	  0.115	 -0.025
  1.896	  0.105	 -0.020
  1.900	  0.130	 -0.005
  1.904	  0.105	  0.025
  1.908	  0.095	  0.010
  1.912	  0.075	  0.005
  1.916	  0.070	 -0.040
  1.920	  0.045	 -0.080
  1.924	  0.030	 -0.130
  1.928	  0.025	 -0.125
  1.932	  0.005	 -0.120
  1.936	 -0.015	 -0.115
  1.940	 -0.030	 -0.105
  1.944	 -0.040	 -0.090
  1.948	 -0.050	 -0.120
  1.952	 -0.065	 -0.115
  1.956	 -0.055	 -0.110
  1.960	 -0.040	 -0.130
  1.964	 -0.015	 -0.140
  1.968	 -0.010	 -0.150
  1.972	 -0.020	 -0.190
  1.976	 -0.035	 -0.195
  1.980	 -0.045	 -0.210
  1.984	 -0.015	 -0.195
  1.988	  0.020	 -0.170
  1.992	  0.030	 -0.185
  1.996	  0.045	 -0.195
  2.000	  0.025	 -0.190
  2.004	  0.020	 -0.175
  2.008	  0.015	 -0.185
  2.012	  0.000	 -0.190
  2.016	  0.030	 -0.190
  2.020	  0.010	 -0.200
  2.024	  0.005	 -0.170
  2.028	  0.005	 -0.165
  2.032	 -0.005	 -0.200
  2.036	  0.000	 -0.165
  2.040	  0.010	 -0.170
  2.044	  0.000	 -0.150
  2.048	  0.000	 -0.110
  2.052	 -0.005	 -0.100
  2.056	  0.000	 -0.065
  2.060	 -0.005	  0.000
  2.064	 -0.010	  0.185
  2.068	  0.000	  0.450
  2.072	  0.020	  0.670
  2.076	  0.065	  0.855
  2.080	  0.035	  0.975
  2.084	 -0.035	  1.000
  2.088	 -0.075	  0.930
  2.092	 -0.125	  0.720
  2.096	 -0.185	  0.410
  2.100	 -0.385	  0.155
  2.104	 -0.675	  0.165
  2.108	 -1.000	  0.280
  2.112	 -1.255	  0.205
  2.116	 -1.385	 -0.060
  2.120	 -1.360	 -0.350
  2.124	 -1.205	 -0.525
  2.128	 -0.825	 -0.615
  2.132	 -0.385	 -0.610
  2.136	 -0.160	 -0.500
  2.140	 -0.120	 -0.405
  2.144	 -0.140	 -0.340
  2.148	 -0.150	 -0.330
  2.152	 -0.160	 -0.325
  2.156	 -0.140	 -0.320
  2.160	 -0.110	 -0.345
  2.164	 -0.040	 -0.330
  2.168	  0.005	 -0.330
  2.172	  0.045	 -0.305
  2.176	  0.065	 -0.300
  2.180	  0.055	 -0.320
  2.184	  0.090	 -0.335
  2.188	  0.080	 -0.335
  2.192	  0.065	 -0.310
  2.196	  0.075	 -0.320
  2.200	  0.060	 -0.340
  2.204	  0.070	 -0.310
  2.208	  0.060	 -0.315
  2.212	  0.075	 -0.315
  2.216	  0.075	 -0.315
  2.220	  0.085	 -0.330
  2.224	  0.085	 -0.320
  2.228	  0.090	 -0.320
  2.232	  0.100	 -0.315
  2.236	  0.095	 -0.320
  2.240	  0.080	 -0.320
  2.244	  0.080	 -0.315
  2.248	  0.075	 -0.340
  2.252	  0.070	 -0.320
  2.256	  0.080	 -0.340
  2.260	  0.080	 -0.335
  2.264	  0.070	 -0.340
  2.268	  0.070	 -0.340
  2.272	  0.090	 -0.355
  2.276	  0.070	 -0.365
  2.280	  0.090	 -0.360
  2.284	  0.070	 -0.365
  2.288	  0.065	 -0.375
  2.292	  0.050	 -0.380
  2.296	  0.055	 -0.380
  2.300	  0.075	 -0.355
  2.304	  0.055	 -0.375
  2.308	  0.055	 -0.370
  2.312	  0.060	 -0.385
  2.316	  0.060	 -0.390
  2.320	  0.045	 -0.380
  2.324	  0.070	 -0.380
  2.328	  0.050	 -0.375
  2.332	  0.030	 -0.370
  2.336	  0.040	 -0.365
  2.340	  0.055	 -0.320
  2.344	  0.050	 -0.330
  2.348	  0.040	 -0.310
  2.352	  0.040	 -0.285
  2.356	  0.030	 -0.260
  2.360	  0.030	 -0.255
  2.364	  0.015	 -0.225
  2.368	  0.010	 -0.235
  2.372	  0.015	 -0.225
  2.376	  0.000	 -0.185
  2.380	  0.000	 -0.170
  2.384	 -0.010	 -0.165
  2.388	 -0.010	 -0.170
  2.392	 -0.035	 -0.160
  2.396	 -0.015	 -0.160
  2.400	 -0.020	 -0.125
  2.404	 -0.025	 -0.140
  2.408	 -0.025	 -0.150
  2.412	 -0.040	 -0.160
  2.416	 -0.025	 -0.140
  2.420	 -0.025	 -0.165
  2.424	 -0.020	 -0.165
  2.428	 -0.015	 -0.160
  2.432	  0.005	 -0.165
  2.436	 -0.005	 -0.185
  2.440	  0.000	 -0.170
  2.444	  0.000	 -0.170
  2.448	 -0.005	 -0.160
  2.452	 -0.005	 -0.165
  2.456	  0.000	 -0.170
  2.460	  0.000	 -0.175
  2.464	  0.000	 -0.185
  2.468	  0.000	 -0.180
  2.472	  0.000	 -0.170
  2.476	  0.000	 -0.180
  2.480	 -0.005	 -0.180
  2.484	  0.005	 -0.175
  2.488	  0.000	 -0.175
  2.492	  0.000	 -0.180
  2.496	 -0.005	 -0.185
  2.500	  0.020	 -0.185
  2.504	  0.005	 -0.195
  2.508	  0.005	 -0.190
  2.512	  0.015	 -0.190
  2.516	 -0.010	 -0.180
  2.520	  0.010	 -0.190
  2.524	  0.010	 -0.175
  2.528	  0.000	 -0.180
  2.532	 -0.010	 -0.170
  2.536	  0.010	 -0.175
  2.540	  0.010	 -0.190
  2.544	  0.000	 -0.165
  2.548	  0.005	 -0.180
  2.552	  0.000	 -0.190
  2.556	  0.000	 -0.185
  2.560	  0.000	 -0.185
  2.564	  0.000	 -0.185
  2.568	 -0.005	 -0.165
  2.572	  0.005	 -0.175
  2.576	  0.010	 -0.180
  2.580	 -0.005	 -0.175
  2.584	 -0.020	 -0.190
  2.588	  0.000	 -0.180
  2.592	  0.000	 -0.180
  2.596	 -0.010	 -0.180
  2.600	 -0.005	 -0.175
  2.604	  0.005	 -0.185
  2.608	  0.000	 -0.185
  2.612	  0.000	 -0.200
  2.616	 -0.005	 -0.180
  2.620	 -0.010	 -0.195
  2.624	  0.000	 -0.195
  2.628	 -0.005	 -0.180
  2.632	  0.000	 -0.175
  2.636	  0.005	 -0.180
  2.640	 -0.005	 -0.160
  2.644	 -0.015	 -0.155
  2.648	 -0.020	 -0.175
  2.652	 -0.005	 -0.165
  2.656	  0.005	 -0.160
  2.660	 -0.005	 -0.180
  2.664	  0.000	 -0.170
  2.668	 -0.005	 -0.180
  2.672	  0.000	 -0.180
  2.676	  0.000	 -0.180
  2.680	  0.000	 -0.175
  2.684	  0.000	 -0.160
  2.688	 -0.015	 -0.170
  2.692	 -0.025	 -0.180
  2.696	 -0.005	 -0.190
  2.700	 -0.015	 -0.180
  2.704	  0.000	 -0.155
  2.708	  0.005	 -0.130
  2.712	  0.000	 -0.075
  2.716	 -0.010	 -0.045
  2.720	  0.000	 -0.015
  2.724	  0.010	 -0.005
  2.728	 -0.010	  0.000
  2.732	  0.030	 -0.010
  2.736	  0.055	 -0.015
  2.740	  0.075	 -0.015
  2.744	  0.080	 -0.020
  2.748	  0.100	 -0.025
  2.752	  0.090	  0.000
  2.756	  0.085	  0.000
  2.760	  0.075	  0.005
  2.764	  0.055	 -0.020
  2.768	  0.065	 -0.045
  2.772	  0.025	 -0.090
  2.776	  0.005	 -0.125
  2.780	  0.000	 -0.155
  2.784	 -0.025	 -0.145
  2.788	 -0.050	 -0.135
  2.792	 -0.045	 -0.135
  2.796	 -0.075	 -0.130
  2.800	 -0.065	 -0.110
  2.804	 -0.080	 -0.135
  2.808	 -0.060	 -0.155
  2.812	 -0.080	 -0.130
  2.816	 -0.055	 -0.140
  2.820	 -0.055	 -0.155
  2.824	 -0.035	 -0.200
  2.828	 -0.050	 -0.210
  2.832	 -0.045	 -0.210
  2.836	 -0.035	 -0.210
  2.840	  0.000	 -0.225
  2.844	  0.030	 -0.215
  2.848	  0.010	 -0.210
  2.852	  0.020	 -0.215
  2.856	  0.015	 -0.210
  2.860	  0.005	 -0.200
  2.864	 -0.010	 -0.200
  2.868	  0.010	 -0.215
  2.872	  0.000	 -0.210
  2.876	 -0.020	 -0.195
  2.880	 -0.010	 -0.205
  2.884	  0.000	 -0.190
  2.888	 -0.015	 -0.195
  2.892	 -0.005	 -0.170
  2.896	  0.000	 -0.145
  2.900	  0.000	 -0.120
  2.904	  0.000	 -0.105
  2.908	 -0.005	 -0.070
  2.912	 -0.010	  0.020
  2.916	  0.000	  0.210
  2.920	  0.000	  0.500
  2.924	  0.030	  0.750
  2.928	  0.040	  0.945
  2.932	  0.030	  1.065
  2.936	 -0.015	  1.105
  2.940	 -0.050	  1.020
  2.944	 -0.085	  0.810
  2.948	 -0.185	  0.445
  2.952	 -0.355	  0.155
  2.956	 -0.615	  0.125
  2.960	 -0.905	  0.225
  2.964	 -1.185	  0.200
  2.968	 -1.300	 -0.040
  2.972	 -1.340	 -0.320
  2.976	 -1.190	 -0.535
  2.980	 -0.840	 -0.620
  2.984	 -0.430	 -0.630
  2.988	 -0.185	 -0.545
  2.992	 -0.120	 -0.425
  2.996	 -0.140	 -0.380
  3.000	 -0.135	 -0.345
  3.004	 -0.140	 -0.345
  3.008	 -0.130	 -0.355
  3.012	 -0.115	 -0.365
  3.016	 -0.040	 -0.350
  3.020	  0.010	 -0.350
  3.024	  0.045	 -0.380
  3.028	  0.085	 -0.385
  3.032	  0.090	 -0.365
  3.036	  0.085	 -0.365
  3.040	  0.075	 -0.375
  3.044	  0.105	 -0.360
  3.048	  0.115	 -0.385
  3.052	  0.100	 -0.375
  3.056	  0.090	 -0.380
  3.060	  0.100	 -0.375
  3.064	  0.095	 -0.360
  3.068	  0.100	 -0.375
  3.072	  0.105	 -0.385
  3.076	  0.100	 -0.385
  3.080	  0.060	 -0.400
  3.084	  0.095	 -0.380
  3.088	  0.095	 -0.370
  3.092	  0.110	 -0.370
  3.096	  0.080	 -0.360
  3.100	  0.090	 -0.390
  3.104	  0.095	 -0.405
  3.108	  0.075	 -0.380
  3.112	  0.085	 -0.400
  3.116	  0.075	 -0.405
  3.120	  0.090	 -0.415
  3.124	  0.075	 -0.390
  3.128	  0.090	 -0.410
  3.132	  0.090	 -0.420
  3.136	  0.110	 -0.425
  3.140	  0.100	 -0.415
  3.144	  0.060	 -0.420
  3.148	  0.090	 -0.435
  3.152	  0.080	 -0.415
  3.156	  0.075	 -0.440
  3.160	  0.100	 -0.440
  3.164	  0.085	 -0.445
  3.168	  0.060	 -0.440
  3.172	  0.070	 -0.445
  3.176	  0.080	 -0.440
  3.180	  0.070	 -0.415
  3.184	  0.070	 -0.435
  3.188	  0.055	 -0.415
  3.192	  0.055	 -0.415
  3.196	  0.060	 -0.380
  3.200	  0.070	 -0.370
  3.204	  0.055	 -0.360
  3.208	  0.050	 -0.335
  3.212	  0.025	 -0.340
  3.216	  0.040	 -0.300
  3.220	  0.020	 -0.285
  3.224	  0.015	 -0.285
  3.228	  0.005	 -0.295
  3.232	  0.005	 -0.260
  3.236	  0.010	 -0.225
  3.240	  0.000	 -0.240
  3.244	  0.000	 -0.230
  3.248	 -0.005	 -0.205
  3.252	 -0.015	 -0.190
  3.256	 -0.005	 -0.215
  3.260	  0.000	 -0.215
  3.264	  0.000	 -0.220
  3.268	 -0.015	 -0.220
  3.272	  0.000	 -0.210
  3.276	  0.020	 -0.215
  3.280	  0.000	 -0.235
  3.284	  0.000	 -0.240
  3.288	  0.010	 -0.215
  3.292	  0.000	 -0.225
  3.296	  0.015	 -0.225
  3.300	  0.020	 -0.235
  3.304	  0.010	 -0.235
  3.308	  0.025	 -0.245
  3.312	  0.020	 -0.235
  3.316	  0.010	 -0.240
  3.320	  0.025	 -0.255
  3.324	  0.030	 -0.250
  3.328	  0.035	 -0.260
  3.332	  0.020	 -0.250
  3.336	  0.020	 -0.265
  3.340	  0.035	 -0.245
  3.344	  0.040	 -0.250
  3.348	  0.025	 -0.240
  3.352	  0.060	 -0.260
  3.356	  0.040	 -0.265
  3.360	  0.045	 -0.250
  3.364	  0.025	 -0.260
  3.368	  0.065	 -0.260
  3.372	  0.060	 -0.230
  3.376	  0.060	 -0.260
  3.380	  0.050	 -0.255
  3.384	  0.045	 -0.245
  3.388	  0.045	 -0.265
  3.392	  0.055	 -0.250
  3.396	  0.045	 -0.255
  3.400	  0.055	 -0.260
  3.404	  0.050	 -0.265
  3.408	  0.025	 -0.255
  3.412	  0.030	 -0.250
  3.416	  0.035	 -0.270
  3.420	  0.055	 -0.260
  3.424	  0.055	 -0.260
  3.428	  0.045	 -0.260
  3.432	  0.045	 -0.260
  3.436	  0.025	 -0.250
  3.440	  0.040	 -0.265
  3.444	  0.020	 -0.260
  3.448	  0.050	 -0.250
  3.452	  0.050	 -0.270
  3.456	  0.020	 -0.270
  3.460	  0.030	 -0.280
  3.464	  0.035	 -0.285
  3.468	  0.035	 -0.275
  3.472	  0.040	 -0.280
  3.476	  0.040	 -0.270
  3.480	  0.040	 -0.280
  3.484	  0.035	 -0.260
  3.488	  0.030	 -0.285
  3.492	  0.005	 -0.265
  3.496	  0.020	 -0.250
  3.500	  0.020	 -0.255
  3.504	  0.020	 -0.260
  3.508	  0.025	 -0.260
  3.512	  0.035	 -0.250
  3.516	  0.030	 -0.270
  3.520	  0.025	 -0.260
  3.524	  0.030	 -0.260
  3.528	  0.050	 -0.255
  3.532	  0.015	 -0.265
  3.536	  0.035	 -0.265
  3.540	  0.015	 -0.250
  3.544	  0.010	 -0.265
  3.548	  0.030	 -0.255
  3.552	  0.035	 -0.260
  3.556	  0.010	 -0.265
  3.560	  0.040	 -0.275
  3.564	  0.025	 -0.265
  3.568	  0.040	 -0.240
  3.572	  0.025	 -0.245
  3.576	  0.025	 -0.220
  3.580	  0.025	 -0.215
  3.584	  0.025	 -0.165
  3.588	  0.025	 -0.140
  3.592	  0.045	 -0.105
  3.596	  0.025	 -0.080
  3.600	  0.035	 -0.075
  3.604	  0.060	 -0.075
  3.608	  0.065	 -0.050
  3.612	  0.110	 -0.065
  3.616	  0.130	 -0.070
  3.620	  0.115	 -0.090
  3.624	  0.155	 -0.070
  3.628	  0.155	 -0.070
  3.632	  0.135	 -0.065
  3.636	  0.150	 -0.080
  3.640	  0.100	 -0.065
  3.644	  0.075	 -0.070
  3.648	  0.080	 -0.120
  3.652	  0.070	 -0.160
  3.656	  0.040	 -0.190
  3.660	  0.025	 -0.210
  3.664	 -0.005	 -0.190
  3.668	 -0.030	 -0.190
  3.672	 -0.035	 -0.160
  3.676	 -0.045	 -0.165
  3.680	 -0.025	 -0.180
  3.684	 -0.030	 -0.175
  3.688	 -0.020	 -0.185
  3.692	 -0.010	 -0.210
  3.696	 -0.010	 -0.205
  3.700	  0.015	 -0.235
  3.704	  0.020	 -0.240
  3.708	  0.020	 -0.250
  3.712	  0.015	 -0.250
  3.716	  0.050	 -0.275
  3.720	  0.045	 -0.270
  3.724	  0.075	 -0.270
  3.728	  0.060	 -0.265
  3.732	  0.065	 -0.255
  3.736	  0.050	 -0.260
  3.740	  0.050	 -0.255
  3.744	  0.055	 -0.250
  3.748	  0.055	 -0.255
  3.752	  0.060	 -0.260
  3.756	  0.050	 -0.235
  3.760	  0.060	 -0.240
  3.764	  0.045	 -0.240
  3.768	  0.035	 -0.245
  3.772	  0.035	 -0.215
  3.776	  0.045	 -0.200
  3.780	  0.040	 -0.170
  3.784	  0.040	 -0.125
  3.788	  0.040	 -0.115
  3.792	  0.030	 -0.055
  3.796	  0.040	  0.080
  3.800	  0.040	  0.345
  3.804	  0.050	  0.630
  3.808	  0.100	  0.830
  3.812	  0.095	  0.965
  3.816	  0.065	  1.005
  3.820	  0.005	  0.965
  3.824	 -0.005	  0.790
  3.828	 -0.060	  0.485
  3.832	 -0.225	  0.150
  3.836	 -0.485	 -0.080
  3.840	 -0.825	  0.050
  3.844	 -1.185	  0.250
  3.848	 -1.395	  0.195
  3.852	 -1.485	 -0.075
  3.856	 -1.470	 -0.355
  3.860	 -1.255	 -0.575
  3.864	 -0.825	 -0.660
  3.868	 -0.395	 -0.670
  3.872	 -0.150	 -0.610
  3.876	 -0.060	 -0.490
  3.880	 -0.060	 -0.425
  3.884	 -0.090	 -0.380
  3.888	 -0.080	 -0.400
  3.892	 -0.085	 -0.370
  3.896	 -0.050	 -0.375
  3.900	 -0.005	 -0.385
  3.904	  0.045	 -0.375
  3.908	  0.100	 -0.375
  3.912	  0.110	 -0.375
  3.916	  0.140	 -0.380
  3.920	  0.135	 -0.375
  3.924	  0.135	 -0.375
  3.928	  0.165	 -0.370
  3.932	  0.155	 -0.380
  3.936	  0.145	 -0.390
  3.940	  0.155	 -0.380
  3.944	  0.155	 -0.355
  3.948	  0.155	 -0.385
  3.952	  0.150	 -0.370
  3.956	  0.150	 -0.370
  3.960	  0.150	 -0.380
  3.964	  0.165	 -0.380
  3.968	  0.170	 -0.355
  3.972	  0.165	 -0.375
  3.976	  0.160	 -0.350
  3.980	  0.150	 -0.375
  3.984	  0.175	 -0.370
  3.988	  0.155	 -0.380
  3.992	  0.170	 -0.375
  3.996	  0.155	 -0.380
  4.000	  0.150	 -0.365
  4.004	  0.145	 -0.380
  4.008	  0.140	 -0.390
  4.012	  0.140	 -0.395
  4.016	  0.170	 -0.395
  4.020	  0.155	 -0.410
  4.024	  0.170	 -0.405
  4.028	  0.145	 -0.400
  4.032	  0.145	 -0.410
  4.036	  0.140	 -0.395
  4.040	  0.140	 -0.395
  4.044	  0.170	 -0.425
  4.048	  0.145	 -0.410
  4.052	  0.145	 -0.415
  4.056	  0.140	 -0.400
  4.060	  0.125	 -0.395
  4.064	  0.120	 -0.405
  4.068	  0.130	 -0.400
  4.072	  0.115	 -0.405
  4.076	  0.115	 -0.385
  4.080	  0.125	 -0.375
  4.084	  0.120	 -0.355
  4.088	  0.120	 -0.335
  4.092	  0.120	 -0.325
  4.096	  0.110	 -0.320
  4.100	  0.110	 -0.305
  4.104	  0.095	 -0.275
  4.108	  0.080	 -0.270
  4.112	  0.070	 -0.255
  4.116	  0.055	 -0.240
  4.120	  0.055	 -0.235
  4.124	  0.070	 -0.230
  4.128	  0.025	 -0.215
  4.132	  0.035	 -0.215
  4.136	  0.020	 -0.195
  4.140	  0.025	 -0.215
  4.144	  0.015	 -0.205
  4.148	  0.035	 -0.200
  4.152	  0.015	 -0.205
  4.156	  0.015	 -0.200
  4.160	  0.000	 -0.200
  4.164	  0.020	 -0.225
  4.168	  0.010	 -0.210
  4.172	  0.005	 -0.220
  4.176	  0.015	 -0.220
  4.180	  0.005	 -0.220
  4.184	 -0.005	 -0.225
  4.188	  0.000	 -0.230
  4.192	  0.010	 -0.210
  4.196	  0.015	 -0.220
  4.200	  0.010	 -0.220
  4.204	  0.025	 -0.245
  4.208	  0.015	 -0.235
  4.212	  0.015	 -0.250
  4.216	  0.025	 -0.255
  4.220	  0.025	 -0.250
  4.224	  0.040	 -0.240
  4.228	  0.020	 -0.245
  4.232	  0.040	 -0.255
  4.236	  0.025	 -0.265
  4.240	  0.040	 -0.260
  4.244	  0.040	 -0.260
  4.248	  0.035	 -0.260
  4.252	  0.035	 -0.265
  4.256	  0.035	 -0.260
  4.260	  0.055	 -0.270
  4.264	  0.055	 -0.265
  4.268	  0.055	 -0.285
  4.272	  0.060	 -0.265
  4.276	  0.075	 -0.255
  4.280	  0.065	 -0.265
  4.284	  0.065	 -0.260
  4.288	  0.040	 -0.250
  4.292	  0.040	 -0.255
  4.296	  0.055	 -0.255
  4.300	  0.065	 -0.250
  4.304	  0.055	 -0.270
  4.308	  0.045	 -0.260
  4.312	  0.040	 -0.285
  4.316	  0.035	 -0.280
  4.320	  0.040	 -0.280
  4.324	  0.055	 -0.290
  4.328	  0.050	 -0.285
  4.332	  0.045	 -0.290
  4.336	  0.055	 -0.280
  4.340	  0.035	 -0.285
  4.344	  0.025	 -0.275
  4.348	  0.035	 -0.280
  4.352	  0.020	 -0.280
  4.356	  0.020	 -0.295
  4.360	  0.010	 -0.285
  4.364	  0.025	 -0.290
  4.368	  0.035	 -0.285
  4.372	  0.025	 -0.275
  4.376	  0.020	 -0.280
  4.380	  0.030	 -0.285
  4.384	  0.020	 -0.280
  4.388	  0.000	 -0.285
  4.392	  0.000	 -0.290
  4.396	  0.010	 -0.270
  4.400	  0.000	 -0.280
  4.404	  0.010	 -0.275
  4.408	  0.025	 -0.290
  4.412	  0.020	 -0.275
  4.416	  0.015	 -0.280
  4.420	  0.010	 -0.275
  4.424	  0.030	 -0.265
  4.428	 -0.010	 -0.260
  4.432	  0.020	 -0.270
  4.436	  0.030	 -0.275
  4.440	  0.000	 -0.285
  4.444	  0.000	 -0.280
  4.448	  0.015	 -0.280
  4.452	  0.000	 -0.265
  4.456	  0.015	 -0.255
  4.460	  0.015	 -0.270
  4.464	  0.005	 -0.275
  4.468	  0.000	 -0.275
  4.472	  0.015	 -0.275
  4.476	  0.015	 -0.235
  4.480	  0.000	 -0.180
  4.484	  0.010	 -0.170
  4.488	  0.000	 -0.135
  4.492	  0.000	 -0.115
  4.496	  0.025	 -0.085
  4.500	  0.035	 -0.095
  4.504	  0.040	 -0.090
  4.508	  0.070	 -0.085
  4.512	  0.100	 -0.110
  4.516	  0.105	 -0.100
  4.520	  0.120	 -0.115
  4.524	  0.115	 -0.095
  4.528	  0.120	 -0.085
  4.532	  0.095	 -0.080
  4.536	  0.075	 -0.110
  4.540	  0.045	 -0.130
  4.544	  0.035	 -0.180
  4.548	  0.015	 -0.195
  4.552	  0.000	 -0.230
  4.556	 -0.040	 -0.230
  4.560	 -0.050	 -0.200
  4.564	 -0.035	 -0.190
  4.568	 -0.050	 -0.195
  4.572	 -0.080	 -0.190
  4.576	 -0.045	 -0.205
  4.580	 -0.040	 -0.220
  4.584	 -0.060	 -0.225
  4.588	 -0.040	 -0.230
  4.592	 -0.025	 -0.245
  4.596	  0.000	 -0.295
  4.600	 -0.020	 -0.290
  4.604	 -0.025	 -0.300
  4.608	 -0.025	 -0.310
  4.612	  0.015	 -0.290
  4.616	  0.045	 -0.300
  4.620	  0.040	 -0.310
  4.624	  0.040	 -0.285
  4.628	  0.020	 -0.280
  4.632	  0.005	 -0.275
  4.636	  0.025	 -0.275
  4.640	  0.035	 -0.270
  4.644	  0.055	 -0.270
  4.648	  0.045	 -0.265
  4.652	  0.030	 -0.265
  4.656	  0.035	 -0.240
  4.660	  0.025	 -0.235
  4.664	  0.030	 -0.255
  4.668	  0.025	 -0.235
  4.672	  0.050	 -0.190
  4.676	  0.030	 -0.150
  4.680	  0.010	 -0.130
  4.684	  0.020	 -0.100
  4.688	  0.025	  0.075
  4.692	  0.010	  0.345
  4.696	  0.035	  0.595
  4.700	  0.075	  0.780
  4.704	  0.065	  0.860
  4.708	  0.020	  0.885
  4.712	 -0.040	  0.800
  4.716	 -0.070	  0.580
  4.720	 -0.145	  0.250
  4.724	 -0.335	 -0.045
  4.728	 -0.645	 -0.025
  4.732	 -0.980	  0.175
  4.736	 -1.265	  0.230
  4.740	 -1.470	  0.010
  4.744	 -1.515	 -0.290
  4.748	 -1.385	 -0.520
  4.752	 -1.020	 -0.650
  4.756	 -0.545	 -0.690
  4.760	 -0.205	 -0.645
  4.764	 -0.080	 -0.545
  4.768	 -0.090	 -0.445
  4.772	 -0.110	 -0.420
  4.776	 -0.120	 -0.425
  4.780	 -0.125	 -0.420
  4.784	 -0.090	 -0.425
  4.788	 -0.040	 -0.415
  4.792	  0.020	 -0.410
  4.796	  0.065	 -0.430
  4.800	  0.095	 -0.410
  4.804	  0.125	 -0.400
  4.808	  0.110	 -0.420
  4.812	  0.105	 -0.410
  4.816	  0.100	 -0.415
  4.820	  0.110	 -0.400
  4.824	  0.095	 -0.400
  4.828	  0.120	 -0.390
  4.832	  0.135	 -0.390
  4.836	  0.150	 -0.390
  4.840	  0.135	 -0.380
  4.844	  0.135	 -0.400
  4.848	  0.140	 -0.410
  4.852	  0.140	 -0.400
  4.856	  0.140	 -0.405
  4.860	  0.145	 -0.400
  4.864	  0.140	 -0.415
  4.868	  0.140	 -0.425
  4.872	  0.115	 -0.420
  4.876	  0.145	 -0.430
  4.880	  0.160	 -0.425
  4.884	  0.135	 -0.415
  4.888	  0.130	 -0.425
  4.892	  0.130	 -0.415
  4.896	  0.125	 -0.435
  4.900	  0.120	 -0.440
  4.904	  0.085	 -0.430
  4.908	  0.115	 -0.440
  4.912	  0.120	 -0.440
  4.916	  0.125	 -0.440
  4.920	  0.115	 -0.440
  4.924	  0.120	 -0.445
  4.928	  0.090	 -0.445
  4.932	  0.110	 -0.440
  4.936	  0.090	 -0.420
  4.940	  0.085	 -0.435
  4.944	  0.090	 -0.440
  4.948	  0.090	 -0.440
  4.952	  0.090	 -0.445
  4.956	  0.080	 -0.440
  4.960	  0.090	 -0.410
  4.964	  0.100	 -0.390
  4.968	  0.090	 -0.375
  4.972	  0.085	 -0.370
  4.976	  0.075	 -0.345
  4.980	  0.060	 -0.335
  4.984	  0.060	 -0.305
  4.988	  0.060	 -0.300
  4.992	  0.060	 -0.280
  4.996	  0.020	 -0.295
  5.000	  0.005	 -0.290
  5.004	  0.005	 -0.275
  5.008	  0.005	 -0.250
  5.012	 -0.005	 -0.255
  5.016	  0.000	 -0.275
  5.020	 -0.020	 -0.270
  5.024	 -0.020	 -0.250
  5.028	 -0.020	 -0.230
  5.032	 -0.015	 -0.265
  5.036	 -0.030	 -0.245
  5.040	 -0.010	 -0.265
  5.044	 -0.035	 -0.270
  5.048	 -0.035	 -0.260
  5.052	 -0.025	 -0.265
  5.056	 -0.015	 -0.245
  5.060	 -0.020	 -0.265
  5.064	 -0.035	 -0.290
  5.068	 -0.035	 -0.275
  5.072	 -0.020	 -0.305
  5.076	 -0.025	 -0.295
  5.080	 -0.025	 -0.300
  5.084	 -0.035	 -0.295
  5.088	 -0.015	 -0.305
  5.092	 -0.020	 -0.320
  5.096	 -0.020	 -0.320
  5.100	 -0.010	 -0.310
  5.104	  0.000	 -0.315
  5.108	 -0.040	 -0.305
  5.112	 -0.030	 -0.315
  5.116	 -0.045	 -0.315
  5.120	 -0.025	 -0.320
  5.124	 -0.005	 -0.325
  5.128	 -0.020	 -0.330
  5.132	 -0.025	 -0.340
  5.136	 -0.010	 -0.325
  5.140	 -0.010	 -0.335
  5.144	 -0.025	 -0.320
  5.148	 -0.020	 -0.315
  5.152	 -0.035	 -0.330
  5.156	 -0.020	 -0.320
  5.160	 -0.010	 -0.300
  5.164	 -0.035	 -0.315
  5.168	 -0.010	 -0.330
  5.172	 -0.020	 -0.325
  5.176	 -0.025	 -0.320
  5.180	 -0.030	 -0.330
  5.184	 -0.020	 -0.310
  5.188	 -0.055	 -0.305
  5.192	 -0.025	 -0.310
  5.196	 -0.045	 -0.315
  5.200	 -0.045	 -0.310
  5.204	 -0.020	 -0.320
  5.208	 -0.045	 -0.330
  5.212	 -0.060	 -0.335
  5.216	 -0.065	 -0.320
  5.220	 -0.060	 -0.345
  5.224	 -0.050	 -0.330
  5.228	 -0.070	 -0.320
  5.232	 -0.060	 -0.320
  5.236	 -0.060	 -0.330
  5.240	 -0.045	 -0.315
  5.244	 -0.055	 -0.330
  5.248	 -0.070	 -0.330
  5.252	 -0.055	 -0.320
  5.256	 -0.065	 -0.315
  5.260	 -0.055	 -0.330
  5.264	 -0.045	 -0.315
  5.268	 -0.045	 -0.345
  5.272	 -0.070	 -0.310
  5.276	 -0.055	 -0.305
  5.280	 -0.075	 -0.305
  5.284	 -0.060	 -0.305
  5.288	 -0.065	 -0.315
  5.292	 -0.060	 -0.325
  5.296	 -0.070	 -0.310
  5.300	 -0.085	 -0.310
  5.304	 -0.075	 -0.340
  5.308	 -0.080	 -0.320
  5.312	 -0.070	 -0.310
  5.316	 -0.075	 -0.310
  5.320	 -0.070	 -0.300
  5.324	 -0.080	 -0.315
  5.328	 -0.080	 -0.315
  5.332	 -0.060	 -0.270
  5.336	 -0.065	 -0.215
  5.340	 -0.075	 -0.190
  5.344	 -0.080	 -0.160
  5.348	 -0.080	 -0.145
  5.352	 -0.075	 -0.155
  5.356	 -0.050	 -0.155
  5.360	 -0.020	 -0.145
  5.364	  0.005	 -0.150
  5.368	  0.000	 -0.160
  5.372	  0.020	 -0.165
  5.376	  0.015	 -0.155
  5.380	  0.025	 -0.140
  5.384	  0.010	 -0.145
  5.388	 -0.030	 -0.155
  5.392	 -0.015	 -0.170
  5.396	 -0.040	 -0.240
  5.400	 -0.065	 -0.265
  5.404	 -0.075	 -0.265
  5.408	 -0.115	 -0.270
  5.412	 -0.125	 -0.240
  5.416	 -0.130	 -0.235
  5.420	 -0.140	 -0.250
  5.424	 -0.140	 -0.260
  5.428	 -0.170	 -0.270
  5.432	 -0.160	 -0.260
  5.436	 -0.155	 -0.270
  5.440	 -0.145	 -0.280
  5.444	 -0.135	 -0.305
  5.448	 -0.145	 -0.345
  5.452	 -0.135	 -0.340
  5.456	 -0.125	 -0.345
  5.460	 -0.120	 -0.330
  5.464	 -0.090	 -0.320
  5.468	 -0.060	 -0.345
  5.472	 -0.065	 -0.325
  5.476	 -0.075	 -0.335
  5.480	 -0.080	 -0.345
  5.484	 -0.090	 -0.310
  5.488	 -0.100	 -0.340
  5.492	 -0.100	 -0.335
  5.496	 -0.105	 -0.325
  5.500	 -0.110	 -0.345
  5.504	 -0.095	 -0.335
  5.508	 -0.090	 -0.315
  5.512	 -0.105	 -0.300
  5.516	 -0.105	 -0.295
  5.520	 -0.110	 -0.275
  5.524	 -0.090	 -0.225
  5.528	 -0.105	 -0.205
  5.532	 -0.080	 -0.185
  5.536	 -0.100	 -0.065
  5.540	 -0.110	  0.165
  5.544	 -0.095	  0.425
  5.548	 -0.045	  0.650
  5.552	 -0.040	  0.795
  5.556	 -0.090	  0.850
  5.560	 -0.125	  0.840
  5.564	 -0.145	  0.730
  5.568	 -0.215	  0.500
  5.572	 -0.360	  0.195
  5.576	 -0.605	  0.010
  5.580	 -0.900	  0.095
  5.584	 -1.215	  0.175
  5.588	 -1.410	  0.050
  5.592	 -1.465	 -0.250
  5.596	 -1.405	 -0.535
  5.600	 -1.105	 -0.660
  5.604	 -0.685	 -0.720
  5.608	 -0.355	 -0.670
  5.612	 -0.200	 -0.570
  5.616	 -0.190	 -0.470
  5.620	 -0.210	 -0.445
  5.624	 -0.225	 -0.435
  5.628	 -0.190	 -0.435
  5.632	 -0.175	 -0.455
  5.636	 -0.145	 -0.445
  5.640	 -0.065	 -0.455
  5.644	 -0.025	 -0.455
  5.648	  0.000	 -0.435
  5.652	  0.005	 -0.445
  5.656	  0.015	 -0.445
  5.660	  0.020	 -0.450
  5.664	  0.020	 -0.445
  5.668	  0.005	 -0.460
  5.672	  0.020	 -0.440
  5.676	  0.005	 -0.445
  5.680	  0.005	 -0.440
  5.684	  0.025	 -0.430
  5.688	  0.050	 -0.435
  5.692	  0.000	 -0.430
  5.696	  0.030	 -0.435
  5.700	  0.000	 -0.415
  5.704	  0.025	 -0.425
  5.708	  0.025	 -0.445
  5.712	  0.020	 -0.435
  5.716	  0.000	 -0.430
  5.720	  0.010	 -0.435
  5.724	  0.000	 -0.430
  5.728	  0.010	 -0.460
  5.732	  0.035	 -0.460
  5.736	  0.000	 -0.485
  5.740	  0.000	 -0.470
  5.744	  0.005	 -0.465
  5.748	  0.000	 -0.470
  5.752	  0.000	 -0.475
  5.756	  0.000	 -0.480
  5.760	  0.000	 -0.455
  5.764	  0.000	 -0.470
  5.768	  0.000	 -0.465
  5.772	  0.000	 -0.480
  5.776	  0.000	 -0.475
  5.780	  0.010	 -0.465
  5.784	 -0.005	 -0.465
  5.788	 -0.020	 -0.465
  5.792	 -0.020	 -0.470
  5.796	 -0.005	 -0.485
  5.800	 -0.015	 -0.465
  5.804	 -0.020	 -0.470
  5.808	 -0.025	 -0.440
  5.812	 -0.045	 -0.440
  5.816	 -0.040	 -0.430
  5.820	 -0.035	 -0.415
  5.824	 -0.040	 -0.400
  5.828	 -0.035	 -0.375
  5.832	 -0.045	 -0.355
  5.836	 -0.060	 -0.315
  5.840	 -0.070	 -0.310
  5.844	 -0.060	 -0.290
  5.848	 -0.070	 -0.305
  5.852	 -0.085	 -0.275
  5.856	 -0.100	 -0.260
  5.860	 -0.080	 -0.250
  5.864	 -0.110	 -0.260
  5.868	 -0.120	 -0.250
  5.872	 -0.115	 -0.260
  5.876	 -0.110	 -0.265
  5.880	 -0.100	 -0.255
  5.884	 -0.125	 -0.235
  5.888	 -0.105	 -0.260
  5.892	 -0.100	 -0.265
  5.896	 -0.095	 -0.260
  5.900	 -0.105	 -0.245
  5.904	 -0.100	 -0.255
  5.908	 -0.080	 -0.270
  5.912	 -0.080	 -0.270
  5.916	 -0.105	 -0.275
  5.920	 -0.105	 -0.280
  5.924	 -0.080	 -0.275
  5.928	 -0.095	 -0.285
  5.932	 -0.110	 -0.275
  5.936	 -0.105	 -0.285
  5.940	 -0.095	 -0.265
  5.944	 -0.090	 -0.280
  5.948	 -0.080	 -0.280
  5.952	 -0.085	 -0.280
  5.956	 -0.100	 -0.300
  5.960	 -0.075	 -0.310
  5.964	 -0.085	 -0.285
  5.968	 -0.090	 -0.280
  5.972	 -0.070	 -0.280
  5.976	 -0.055	 -0.290
  5.980	 -0.070	 -0.300
  5.984	 -0.085	 -0.295
  5.988	 -0.045	 -0.290
  5.992	 -0.080	 -0.290
  5.996	 -0.055	 -0.300
  6.000	 -0.060	 -0.295
  6.004	 -0.070	 -0.300
  6.008	 -0.080	 -0.290
  6.012	 -0.070	 -0.290
  6.016	 -0.100	 -0.295
  6.020	 -0.100	 -0.275
  6.024	 -0.095	 -0.295
  6.028	 -0.105	 -0.275
  6.032	 -0.090	 -0.270
  6.036	 -0.080	 -0.260
  6.040	 -0.100	 -0.290
  6.044	 -0.095	 -0.290
  6.048	 -0.095	 -0.295
  6.052	 -0.110	 -0.295
  6.056	 -0.115	 -0.315
  6.060	 -0.100	 -0.295
  6.064	 -0.120	 -0.305
  6.068	 -0.120	 -0.295
  6.072	 -0.130	 -0.290
  6.076	 -0.110	 -0.300
  6.080	 -0.130	 -0.305
  6.084	 -0.150	 -0.305
  6.088	 -0.135	 -0.310
  6.092	 -0.135	 -0.300
  6.096	 -0.120	 -0.295
  6.100	 -0.130	 -0.315
  6.104	 -0.160	 -0.310
  6.108	 -0.120	 -0.310
  6.112	 -0.130	 -0.305
  6.116	 -0.135	 -0.315
  6.120	 -0.140	 -0.330
  6.124	 -0.160	 -0.330
  6.128	 -0.150	 -0.295
  6.132	 -0.120	 -0.305
  6.136	 -0.155	 -0.310
  6.140	 -0.150	 -0.295
  6.144	 -0.150	 -0.320
  6.148	 -0.155	 -0.295
  6.152	 -0.120	 -0.315
  6.156	 -0.155	 -0.325
  6.160	 -0.140	 -0.315
  6.164	 -0.140	 -0.295
  6.168	 -0.185	 -0.310
  6.172	 -0.155	 -0.305
  6.176	 -0.150	 -0.295
  6.180	 -0.140	 -0.245
  6.184	 -0.175	 -0.240
  6.188	 -0.160	 -0.220
  6.192	 -0.155	 -0.175
  6.196	 -0.165	 -0.155
  6.200	 -0.160	 -0.150
  6.204	 -0.120	 -0.150
  6.208	 -0.115	 -0.155
  6.212	 -0.080	 -0.160
  6.216	 -0.060	 -0.170
  6.220	 -0.075	 -0.170
  6.224	 -0.055	 -0.180
  6.228	 -0.050	 -0.130
  6.232	 -0.060	 -0.135
  6.236	 -0.070	 -0.125
  6.240	 -0.080	 -0.135
  6.244	 -0.100	 -0.180
  6.248	 -0.135	 -0.245
  6.252	 -0.120	 -0.275
  6.256	 -0.150	 -0.285
  6.260	 -0.175	 -0.260
  6.264	 -0.180	 -0.265
  6.268	 -0.195	 -0.275
  6.272	 -0.215	 -0.265
  6.276	 -0.210	 -0.275
  6.280	 -0.195	 -0.285
  6.284	 -0.230	 -0.300
  6.288	 -0.225	 -0.315
  6.292	 -0.205	 -0.305
  6.296	 -0.165	 -0.325
  6.300	 -0.180	 -0.360
  6.304	 -0.190	 -0.375
  6.308	 -0.190	 -0.370
  6.312	 -0.155	 -0.375
  6.316	 -0.140	 -0.365
  6.320	 -0.140	 -0.365
  6.324	 -0.120	 -0.360
  6.328	 -0.120	 -0.350
  6.332	 -0.115	 -0.360
  6.336	 -0.120	 -0.365
  6.340	 -0.130	 -0.350
  6.344	 -0.145	 -0.350
  6.348	 -0.135	 -0.360
  6.352	 -0.135	 -0.340
  6.356	 -0.150	 -0.340
  6.360	 -0.135	 -0.365
  6.364	 -0.140	 -0.345
  6.368	 -0.125	 -0.335
  6.372	 -0.125	 -0.310
  6.376	 -0.135	 -0.275
  6.380	 -0.145	 -0.250
  6.384	 -0.140	 -0.240
  6.388	 -0.145	 -0.155
  6.392	 -0.160	  0.020
  6.396	 -0.140	  0.325
  6.400	 -0.110	  0.570
  6.404	 -0.095	  0.755
  6.408	 -0.115	  0.895
  6.412	 -0.150	  0.950
  6.416	 -0.190	  0.915
  6.420	 -0.200	  0.735
  6.424	 -0.285	  0.390
  6.428	 -0.465	  0.075
  6.432	 -0.745	 -0.030
  6.436	 -1.055	  0.065
  6.440	 -1.290	  0.090
  6.444	 -1.450	 -0.110
  6.448	 -1.465	 -0.415
  6.452	 -1.320	 -0.635
  6.456	 -0.980	 -0.750
  6.460	 -0.570	 -0.780
  6.464	 -0.310	 -0.705
  6.468	 -0.210	 -0.625
  6.472	 -0.220	 -0.540
  6.476	 -0.265	 -0.495
  6.480	 -0.260	 -0.490
  6.484	 -0.240	 -0.510
  6.488	 -0.210	 -0.505
  6.492	 -0.155	 -0.495
  6.496	 -0.115	 -0.505
  6.500	 -0.055	 -0.500
  6.504	 -0.035	 -0.495
  6.508	 -0.020	 -0.490
  6.512	 -0.040	 -0.510
  6.516	 -0.040	 -0.490
  6.520	 -0.040	 -0.480
  6.524	 -0.010	 -0.485
  6.528	 -0.015	 -0.470
  6.532	 -0.010	 -0.495
  6.536	  0.000	 -0.480
  6.540	  0.000	 -0.475
  6.544	 -0.015	 -0.460
  6.548	  0.010	 -0.470
  6.552	  0.000	 -0.490
  6.556	  0.000	 -0.485
  6.560	  0.000	 -0.485
  6.564	 -0.020	 -0.495
  6.568	 -0.010	 -0.490
  6.572	 -0.010	 -0.490
  6.576	 -0.010	 -0.490
  6.580	 -0.005	 -0.485
  6.584	  0.000	 -0.490
  6.588	  0.005	 -0.490
  6.592	 -0.005	 -0.485
  6.596	  0.005	 -0.490
  6.600	  0.010	 -0.515
  6.604	  0.000	 -0.505
  6.608	  0.005	 -0.495
  6.612	  0.005	 -0.505
  6.616	  0.000	 -0.495
  6.620	  0.005	 -0.500
  6.624	  0.020	 -0.515
  6.628	  0.000	 -0.530
  6.632	  0.005	 -0.515
  6.636	  0.015	 -0.500
  6.640	  0.010	 -0.510
  6.644	 -0.005	 -0.515
  6.648	 -0.005	 -0.515
  6.652	  0.000	 -0.510
  6.656	 -0.010	 -0.485
  6.660	  0.000	 -0.480
  6.664	  0.005	 -0.480
  6.668	  0.000	 -0.440
  6.672	  0.000	 -0.450
  6.676	  0.000	 -0.440
  6.680	 -0.015	 -0.415
  6.684	 -0.030	 -0.400
  6.688	 -0.035	 -0.390
  6.692	 -0.045	 -0.360
  6.696	 -0.040	 -0.355
  6.700	 -0.030	 -0.325
  6.704	 -0.055	 -0.315
  6.708	 -0.055	 -0.315
  6.712	 -0.055	 -0.325
  6.716	 -0.045	 -0.310
  6.720	 -0.045	 -0.305
  6.724	 -0.045	 -0.305
  6.728	 -0.075	 -0.290
  6.732	 -0.065	 -0.285
  6.736	 -0.065	 -0.295
  6.740	 -0.060	 -0.280
  6.744	 -0.070	 -0.280
  6.748	 -0.055	 -0.285
  6.752	 -0.060	 -0.275
  6.756	 -0.040	 -0.285
  6.760	 -0.050	 -0.260
  6.764	 -0.055	 -0.295
  6.768	 -0.060	 -0.290
  6.772	 -0.045	 -0.290
  6.776	 -0.025	 -0.290
  6.780	 -0.035	 -0.290
  6.784	 -0.025	 -0.300
  6.788	 -0.045	 -0.300
  6.792	 -0.040	 -0.280
  6.796	 -0.035	 -0.315
  6.800	 -0.045	 -0.295
  6.804	 -0.015	 -0.305
  6.808	 -0.040	 -0.310
  6.812	 -0.040	 -0.300
  6.816	 -0.035	 -0.305
  6.820	 -0.020	 -0.320
  6.824	 -0.015	 -0.310
  6.828	 -0.025	 -0.310
  6.832	 -0.015	 -0.305
  6.836	 -0.025	 -0.315
  6.840	 -0.030	 -0.310
  6.844	 -0.015	 -0.305
  6.848	  0.000	 -0.300
  6.852	 -0.020	 -0.295
  6.856	 -0.025	 -0.300
  6.860	 -0.015	 -0.310
  6.864	 -0.005	 -0.310
  6.868	 -0.020	 -0.310
  6.872	 -0.020	 -0.300
  6.876	 -0.035	 -0.305
  6.880	 -0.020	 -0.315
  6.884	 -0.035	 -0.305
  6.888	 -0.035	 -0.320
  6.892	 -0.030	 -0.300
  6.896	 -0.010	 -0.305
  6.900	 -0.025	 -0.295
  6.904	 -0.035	 -0.310
  6.908	 -0.035	 -0.320
  6.912	 -0.040	 -0.320
  6.916	 -0.020	 -0.300
  6.920	 -0.030	 -0.315
  6.924	 -0.030	 -0.310
  6.928	 -0.040	 -0.300
  6.932	 -0.020	 -0.310
  6.936	 -0.050	 -0.325
  6.940	 -0.050	 -0.315
  6.944	 -0.035	 -0.310
  6.948	 -0.040	 -0.320
  6.952	 -0.025	 -0.295
  6.956	 -0.030	 -0.320
  6.960	 -0.045	 -0.295
  6.964	 -0.020	 -0.315
  6.968	 -0.035	 -0.290
  6.972	 -0.025	 -0.310
  6.976	 -0.030	 -0.315
  6.980	 -0.065	 -0.325
  6.984	 -0.040	 -0.310
  6.988	 -0.055	 -0.320
  6.992	 -0.050	 -0.315
  6.996	 -0.050	 -0.320
  7.000	 -0.040	 -0.300
  7.004	 -0.045	 -0.315
  7.008	 -0.040	 -0.315
  7.012	 -0.050	 -0.305
  7.016	 -0.040	 -0.300
  7.020	 -0.045	 -0.335
  7.024	 -0.050	 -0.320
  7.028	 -0.045	 -0.335
  7.032	 -0.040	 -0.305
  7.036	 -0.050	 -0.300
  7.040	 -0.060	 -0.280
  7.044	 -0.045	 -0.275
  7.048	 -0.040	 -0.235
  7.052	 -0.045	 -0.210
  7.056	 -0.055	 -0.160
  7.060	 -0.055	 -0.155
  7.064	 -0.025	 -0.155
  7.068	 -0.010	 -0.135
  7.072	  0.000	 -0.130
  7.076	  0.020	 -0.120
  7.080	  0.030	 -0.120
  7.084	  0.055	 -0.125
  7.088	  0.060	 -0.140
  7.092	  0.075	 -0.125
  7.096	  0.045	 -0.120
  7.100	  0.035	 -0.145
  7.104	  0.015	 -0.125
  7.108	 -0.010	 -0.175
  7.112	 -0.010	 -0.210
  7.116	 -0.045	 -0.265
  7.120	 -0.065	 -0.270
  7.124	 -0.095	 -0.260
  7.128	 -0.100	 -0.250
  7.132	 -0.100	 -0.245
  7.136	 -0.115	 -0.240
  7.140	 -0.130	 -0.220
  7.144	 -0.140	 -0.245
  7.148	 -0.135	 -0.250
  7.152	 -0.125	 -0.265
  7.156	 -0.115	 -0.280
  7.160	 -0.105	 -0.300
  7.164	 -0.105	 -0.320
  7.168	 -0.105	 -0.340
  7.172	 -0.090	 -0.340
  7.176	 -0.090	 -0.355
  7.180	 -0.065	 -0.330
  7.184	 -0.040	 -0.325
  7.188	 -0.015	 -0.350
  7.192	 -0.020	 -0.340
  7.196	 -0.035	 -0.345
  7.200	 -0.055	 -0.320
  7.204	 -0.060	 -0.355
  7.208	 -0.065	 -0.340
  7.212	 -0.055	 -0.340
  7.216	 -0.050	 -0.330
  7.220	 -0.035	 -0.325
  7.224	 -0.045	 -0.325
  7.228	 -0.070	 -0.320
  7.232	 -0.065	 -0.300
  7.236	 -0.050	 -0.280
  7.240	 -0.065	 -0.230
  7.244	 -0.070	 -0.210
  7.248	 -0.095	 -0.180
  7.252	 -0.070	 -0.045
  7.256	 -0.040	  0.185
  7.260	 -0.035	  0.495
  7.264	 -0.005	  0.720
  7.268	  0.015	  0.865
  7.272	 -0.030	  0.935
  7.276	 -0.100	  0.910
  7.280	 -0.110	  0.750
  7.284	 -0.175	  0.440
  7.288	 -0.320	  0.065
  7.292	 -0.555	 -0.130
  7.296	 -0.930	  0.000
  7.300	 -1.240	  0.165
  7.304	 -1.460	  0.055
  7.308	 -1.580	 -0.205
  7.312	 -1.540	 -0.525
  7.316	 -1.280	 -0.680
  7.320	 -0.820	 -0.740
  7.324	 -0.410	 -0.700
  7.328	 -0.210	 -0.620
  7.332	 -0.145	 -0.545
  7.336	 -0.165	 -0.485
  7.340	 -0.175	 -0.475
  7.344	 -0.175	 -0.480
  7.348	 -0.180	 -0.475
  7.352	 -0.125	 -0.490
  7.356	 -0.080	 -0.485
  7.360	 -0.020	 -0.470
  7.364	  0.020	 -0.480
  7.368	  0.020	 -0.480
  7.372	  0.020	 -0.445
  7.376	  0.050	 -0.465
  7.380	  0.055	 -0.470
  7.384	  0.075	 -0.470
  7.388	  0.070	 -0.460
  7.392	  0.065	 -0.475
  7.396	  0.095	 -0.455
  7.400	  0.065	 -0.445
  7.404	  0.080	 -0.455
  7.408	  0.080	 -0.440
  7.412	  0.085	 -0.455
  7.416	  0.095	 -0.460
  7.420	  0.095	 -0.455
  7.424	  0.095	 -0.445
  7.428	  0.100	 -0.450
  7.432	  0.110	 -0.445
  7.436	  0.100	 -0.445
  7.440	  0.080	 -0.470
  7.444	  0.080	 -0.465
  7.448	  0.095	 -0.475
  7.452	  0.070	 -0.460
  7.456	  0.090	 -0.480
  7.460	  0.080	 -0.485
  7.464	  0.075	 -0.495
  7.468	  0.075	 -0.465
  7.472	  0.100	 -0.475
  7.476	  0.105	 -0.475
  7.480	  0.115	 -0.475
  7.484	  0.070	 -0.460
  7.488	  0.100	 -0.480
  7.492	  0.080	 -0.490
  7.496	  0.090	 -0.485
  7.500	  0.085	 -0.485
  7.504	  0.080	 -0.485
  7.508	  0.040	 -0.475
  7.512	  0.070	 -0.500
  7.516	  0.065	 -0.475
  7.520	  0.055	 -0.470
  7.524	  0.055	 -0.455
  7.528	  0.060	 -0.445
  7.532	  0.065	 -0.415
  7.536	  0.055	 -0.415
  7.540	  0.050	 -0.395
  7.544	  0.065	 -0.390
  7.548	  0.025	 -0.360
  7.552	  0.050	 -0.355
  7.556	  0.030	 -0.320
  7.560	  0.030	 -0.320
  7.564	  0.010	 -0.310
  7.568	  0.005	 -0.290
  7.572	 -0.010	 -0.300
  7.576	 -0.020	 -0.270
  7.580	 -0.015	 -0.280
  7.584	 -0.020	 -0.270
  7.588	 -0.015	 -0.265
  7.592	 -0.005	 -0.255
  7.596	 -0.005	 -0.260
  7.600	 -0.025	 -0.250
  7.604	 -0.015	 -0.265
  7.608	 -0.045	 -0.255
  7.612	 -0.035	 -0.250
  7.616	 -0.015	 -0.260
  7.620	  0.000	 -0.265
  7.624	 -0.005	 -0.275
  7.628	 -0.015	 -0.285
  7.632	  0.000	 -0.285
  7.636	  0.020	 -0.285
  7.640	  0.000	 -0.290
  7.644	  0.005	 -0.295
  7.648	  0.005	 -0.285
  7.652	  0.010	 -0.305
  7.656	  0.005	 -0.290
  7.660	  0.010	 -0.305
  7.664	  0.000	 -0.300
  7.668	  0.010	 -0.300
  7.672	 -0.015	 -0.295
  7.676	  0.035	 -0.310
  7.680	  0.005	 -0.300
  7.684	  0.020	 -0.295
  7.688	  0.025	 -0.315
  7.692	  0.025	 -0.310
  7.696	  0.040	 -0.305
  7.700	  0.025	 -0.305
  7.704	  0.015	 -0.310
  7.708	  0.020	 -0.305
  7.712	  0.040	 -0.310
  7.716	  0.040	 -0.295
  7.720	  0.030	 -0.305
  7.724	  0.030	 -0.305
  7.728	  0.035	 -0.310
  7.732	  0.040	 -0.300
  7.736	  0.040	 -0.290
  7.740	  0.045	 -0.310
  7.744	  0.030	 -0.305
  7.748	  0.050	 -0.310
  7.752	  0.045	 -0.295
  7.756	  0.025	 -0.290
  7.760	  0.010	 -0.300
  7.764	  0.010	 -0.285
  7.768	  0.025	 -0.280
  7.772	  0.015	 -0.285
  7.776	  0.010	 -0.300
  7.780	  0.005	 -0.270
  7.784	  0.000	 -0.280
  7.788	  0.020	 -0.280
  7.792	  0.010	 -0.280
  7.796	  0.000	 -0.275
  7.800	  0.000	 -0.290
  7.804	  0.000	 -0.295
  7.808	  0.025	 -0.300
  7.812	  0.005	 -0.280
  7.816	  0.000	 -0.290
  7.820	  0.000	 -0.295
  7.824	  0.000	 -0.300
  7.828	  0.000	 -0.310
  7.832	 -0.010	 -0.280
  7.836	  0.010	 -0.280
  7.840	  0.005	 -0.310
  7.844	 -0.005	 -0.265
  7.848	  0.005	 -0.300
  7.852	  0.000	 -0.320
  7.856	  0.005	 -0.305
  7.860	  0.020	 -0.275
  7.864	  0.000	 -0.290
  7.868	  0.005	 -0.300
  7.872	  0.000	 -0.290
  7.876	 -0.015	 -0.290
  7.880	 -0.015	 -0.290
  7.884	 -0.010	 -0.290
  7.888	 -0.020	 -0.270
  7.892	 -0.030	 -0.285
  7.896	 -0.025	 -0.295
  7.900	  0.000	 -0.305
  7.904	 -0.020	 -0.280
  7.908	  0.005	 -0.300
  7.912	 -0.020	 -0.275
  7.916	 -0.010	 -0.255
  7.920	 -0.005	 -0.240
  7.924	  0.000	 -0.210
  7.928	 -0.015	 -0.160
  7.932	 -0.010	 -0.130
  7.936	 -0.020	 -0.120
  7.940	  0.000	 -0.125
  7.944	  0.020	 -0.110
  7.948	  0.025	 -0.105
  7.952	  0.075	 -0.110
  7.956	  0.070	 -0.105
  7.960	  0.075	 -0.110
  7.964	  0.095	 -0.120
  7.968	  0.100	 -0.115
  7.972	  0.075	 -0.095
  7.976	  0.090	 -0.115
  7.980	  0.065	 -0.125
  7.984	  0.030	 -0.135
  7.988	  0.005	 -0.190
  7.992	  0.000	 -0.205
  7.996	 -0.030	 -0.235
  8.000	 -0.065	 -0.230
  8.004	 -0.050	 -0.245
  8.008	 -0.080	 -0.220
  8.012	 -0.085	 -0.195
  8.016	 -0.095	 -0.210
  8.020	 -0.080	 -0.225
  8.024	 -0.080	 -0.230
  8.028	 -0.080	 -0.245
  8.032	 -0.050	 -0.255
  8.036	 -0.055	 -0.255
  8.040	 -0.040	 -0.265
  8.044	 -0.055	 -0.290
  8.048	 -0.055	 -0.335
  8.052	 -0.050	 -0.335
  8.056	 -0.005	 -0.305
  8.060	 -0.010	 -0.320
  8.064	  0.005	 -0.305
  8.068	  0.000	 -0.305
  8.072	  0.010	 -0.300
  8.076	 -0.015	 -0.290
  8.080	  0.000	 -0.275
  8.084	  0.000	 -0.285
  8.088	 -0.005	 -0.295
  8.092	 -0.015	 -0.295
  8.096	 -0.010	 -0.280
  8.100	 -0.015	 -0.295
  8.104	 -0.025	 -0.285
  8.108	 -0.020	 -0.290
  8.112	 -0.035	 -0.280
  8.116	 -0.030	 -0.265
  8.120	 -0.005	 -0.225
  8.124	 -0.040	 -0.185
  8.128	 -0.035	 -0.160
  8.132	 -0.035	 -0.120
  8.136	 -0.030	  0.070
  8.140	 -0.010	  0.325
  8.144	  0.000	  0.570
  8.148	  0.035	  0.730
  8.152	  0.015	  0.825
  8.156	 -0.040	  0.840
  8.160	 -0.080	  0.785
  8.164	 -0.110	  0.600
  8.168	 -0.190	  0.320
  8.172	 -0.375	 -0.010
  8.176	 -0.655	 -0.120
  8.180	 -0.960	  0.035
  8.184	 -1.300	  0.210
  8.188	 -1.480	  0.095
  8.192	 -1.585	 -0.175
  8.196	 -1.535	 -0.445
  8.200	 -1.255	 -0.635
  8.204	 -0.780	 -0.720
  8.208	 -0.370	 -0.680
  8.212	 -0.160	 -0.600
  8.216	 -0.120	 -0.485
  8.220	 -0.140	 -0.445
  8.224	 -0.165	 -0.425
  8.228	 -0.170	 -0.405
  8.232	 -0.160	 -0.420
  8.236	 -0.090	 -0.420
  8.240	 -0.015	 -0.425
  8.244	  0.015	 -0.435
  8.248	  0.050	 -0.435
  8.252	  0.060	 -0.430
  8.256	  0.065	 -0.420
  8.260	  0.095	 -0.430
  8.264	  0.070	 -0.425
  8.268	  0.085	 -0.420
  8.272	  0.110	 -0.430
  8.276	  0.100	 -0.400
  8.280	  0.095	 -0.405
  8.284	  0.130	 -0.420
  8.288	  0.140	 -0.405
  8.292	  0.125	 -0.395
  8.296	  0.100	 -0.375
  8.300	  0.105	 -0.395
  8.304	  0.115	 -0.400
  8.308	  0.125	 -0.390
  8.312	  0.105	 -0.400
  8.316	  0.115	 -0.385
  8.320	  0.095	 -0.365
  8.324	  0.110	 -0.405
  8.328	  0.110	 -0.400
  8.332	  0.120	 -0.390
  8.336	  0.115	 -0.400
  8.340	  0.125	 -0.390
  8.344	  0.115	 -0.390
  8.348	  0.110	 -0.410
  8.352	  0.120	 -0.410
  8.356	  0.115	 -0.430
  8.360	  0.095	 -0.440
  8.364	  0.095	 -0.420
  8.368	  0.100	 -0.435
  8.372	  0.100	 -0.445
  8.376	  0.095	 -0.450
  8.380	  0.090	 -0.430
  8.384	  0.095	 -0.425
  8.388	  0.100	 -0.425
  8.392	  0.090	 -0.410
  8.396	  0.110	 -0.445
  8.400	  0.070	 -0.440
  8.404	  0.100	 -0.440
  8.408	  0.090	 -0.410
  8.412	  0.065	 -0.435
  8.416	  0.080	 -0.390
  8.420	  0.075	 -0.375
  8.424	  0.055	 -0.365
  8.428	  0.065	 -0.380
  8.432	  0.045	 -0.340
  8.436	  0.055	 -0.340
  8.440	  0.050	 -0.320
  8.444	  0.075	 -0.295
  8.448	  0.035	 -0.285
  8.452	  0.030	 -0.280
  8.456	  0.020	 -0.260
  8.460	  0.005	 -0.265
  8.464	  0.000	 -0.250
  8.468	 -0.005	 -0.245
  8.472	 -0.005	 -0.240
  8.476	 -0.025	 -0.245
  8.480	 -0.020	 -0.225
  8.484	 -0.030	 -0.225
  8.488	 -0.010	 -0.235
  8.492	 -0.050	 -0.240
  8.496	 -0.020	 -0.215
  8.500	 -0.030	 -0.215
  8.504	 -0.025	 -0.230
  8.508	 -0.025	 -0.255
  8.512	 -0.025	 -0.260
  8.516	 -0.020	 -0.260
  8.520	  0.000	 -0.260
  8.524	 -0.025	 -0.265
  8.528	 -0.010	 -0.270
  8.532	  0.005	 -0.270
  8.536	 -0.025	 -0.280
  8.540	 -0.040	 -0.250
  8.544	 -0.005	 -0.275
  8.548	 -0.010	 -0.285
  8.552	 -0.025	 -0.290
  8.556	 -0.015	 -0.285
  8.560	 -0.020	 -0.290
  8.564	  0.005	 -0.285
  8.568	  0.000	 -0.270
  8.572	  0.000	 -0.270
  8.576	  0.000	 -0.270
  8.580	  0.025	 -0.290
  8.584	  0.010	 -0.280
  8.588	  0.010	 -0.275
  8.592	  0.000	 -0.260
  8.596	  0.005	 -0.290
  8.600	  0.010	 -0.280
  8.604	  0.010	 -0.270
  8.608	  0.015	 -0.250
  8.612	  0.015	 -0.260
  8.616	  0.040	 -0.255
  8.620	  0.015	 -0.265
  8.624	  0.020	 -0.255
  8.628	  0.015	 -0.275
  8.632	  0.040	 -0.260
  8.636	  0.040	 -0.270
  8.640	  0.020	 -0.245
  8.644	  0.030	 -0.265
  8.648	  0.020	 -0.255
  8.652	  0.020	 -0.250
  8.656	  0.005	 -0.260
  8.660	  0.010	 -0.265
  8.664	  0.020	 -0.250
  8.668	  0.000	 -0.255
  8.672	  0.010	 -0.255
  8.676	 -0.020	 -0.240
  8.680	  0.000	 -0.240
  8.684	  0.020	 -0.245
  8.688	  0.010	 -0.240
  8.692	  0.000	 -0.240
  8.696	  0.000	 -0.240
  8.700	  0.005	 -0.235
  8.704	  0.015	 -0.225
  8.708	  0.005	 -0.255
  8.712	  0.005	 -0.235
  8.716	  0.005	 -0.255
  8.720	 -0.015	 -0.235
  8.724	 -0.015	 -0.225
  8.728	 -0.025	 -0.255
  8.732	  0.000	 -0.240
  8.736	  0.000	 -0.235
  8.740	  0.025	 -0.245
  8.744	  0.000	 -0.235
  8.748	 -0.020	 -0.235
  8.752	  0.015	 -0.235
  8.756	  0.000	 -0.220
  8.760	  0.000	 -0.230
  8.764	  0.000	 -0.215
  8.768	  0.005	 -0.220
  8.772	  0.000	 -0.230
  8.776	  0.000	 -0.220
  8.780	 -0.020	 -0.230
  8.784	 -0.005	 -0.235
  8.788	 -0.005	 -0.210
  8.792	 -0.015	 -0.210
  8.796	  0.000	 -0.195
  8.800	 -0.020	 -0.155
  8.804	 -0.015	 -0.125
  8.808	 -0.010	 -0.085
  8.812	  0.000	 -0.065
  8.816	 -0.010	 -0.040
  8.820	  0.005	 -0.045
  8.824	  0.010	 -0.050
  8.828	  0.035	 -0.050
  8.832	  0.055	 -0.030
  8.836	  0.070	 -0.045
  8.840	  0.075	 -0.065
  8.844	  0.060	 -0.035
  8.848	  0.080	 -0.040
  8.852	  0.070	 -0.030
  8.856	  0.060	 -0.025
  8.860	  0.045	 -0.045
  8.864	  0.035	 -0.095
  8.868	  0.015	 -0.135
  8.872	 -0.010	 -0.145
  8.876	 -0.040	 -0.160
  8.880	 -0.065	 -0.155
  8.884	 -0.055	 -0.130
  8.888	 -0.075	 -0.125
  8.892	 -0.085	 -0.130
  8.896	 -0.085	 -0.140
  8.900	 -0.080	 -0.145
  8.904	 -0.065	 -0.145
  8.908	 -0.070	 -0.150
  8.912	 -0.060	 -0.125
  8.916	 -0.070	 -0.165
  8.920	 -0.050	 -0.205
  8.924	 -0.055	 -0.220
  8.928	 -0.040	 -0.225
  8.932	 -0.030	 -0.215
  8.936	 -0.030	 -0.200
  8.940	  0.000	 -0.185
  8.944	 -0.010	 -0.215
  8.948	 -0.030	 -0.205
  8.952	 -0.025	 -0.195
  8.956	 -0.010	 -0.175
  8.960	 -0.005	 -0.185
  8.964	 -0.020	 -0.195
  8.968	 -0.030	 -0.185
  8.972	  0.010	 -0.170
  8.976	 -0.020	 -0.195
  8.980	 -0.015	 -0.175
  8.984	 -0.020	 -0.175
  8.988	 -0.020	 -0.165
  8.992	 -0.040	 -0.140
  8.996	 -0.025	 -0.105
  9.000	 -0.025	 -0.075
  9.004	 -0.020	 -0.055
  9.008	 -0.020	  0.005
  9.012	 -0.025	  0.210
  9.016	  0.000	  0.455
  9.020	  0.025	  0.680
  9.024	  0.030	  0.830
  9.028	 -0.010	  0.920
  9.032	 -0.050	  0.920
  9.036	 -0.100	  0.840
  9.040	 -0.130	  0.660
  9.044	 -0.240	  0.355
  9.048	 -0.460	  0.125
  9.052	 -0.760	  0.140
  9.056	 -1.060	  0.270
  9.060	 -1.300	  0.260
  9.064	 -1.425	  0.030
  9.068	 -1.430	 -0.275
  9.072	 -1.235	 -0.495
  9.076	 -0.875	 -0.580
  9.080	 -0.425	 -0.605
  9.084	 -0.155	 -0.535
  9.088	 -0.105	 -0.420
  9.092	 -0.130	 -0.360
  9.096	 -0.125	 -0.325
  9.100	 -0.145	 -0.325
  9.104	 -0.140	 -0.325
  9.108	 -0.115	 -0.310
  9.112	 -0.075	 -0.320
  9.116	 -0.015	 -0.340
  9.120	  0.025	 -0.330
  9.124	  0.040	 -0.330
  9.128	  0.055	 -0.355
  9.132	  0.035	 -0.335
  9.136	  0.060	 -0.320
  9.140	  0.060	 -0.340
  9.144	  0.065	 -0.350
  9.148	  0.070	 -0.340
  9.152	  0.075	 -0.345
  9.156	  0.065	 -0.355
  9.160	  0.050	 -0.345
  9.164	  0.070	 -0.345
  9.168	  0.085	 -0.350
  9.172	  0.090	 -0.355
  9.176	  0.085	 -0.335
  9.180	  0.080	 -0.340
  9.184	  0.080	 -0.345
  9.188	  0.085	 -0.340
  9.192	  0.095	 -0.355
  9.196	  0.075	 -0.340
  9.200	  0.065	 -0.340
  9.204	  0.065	 -0.360
  9.208	  0.070	 -0.360
  9.212	  0.065	 -0.365
  9.216	  0.065	 -0.380
  9.220	  0.060	 -0.385
  9.224	  0.070	 -0.370
  9.228	  0.060	 -0.370
  9.232	  0.055	 -0.390
  9.236	  0.050	 -0.370
  9.240	  0.065	 -0.385
  9.244	  0.065	 -0.395
  9.248	  0.055	 -0.390
  9.252	  0.050	 -0.405
  9.256	  0.055	 -0.400
  9.260	  0.045	 -0.420
  9.264	  0.055	 -0.380
  9.268	  0.050	 -0.375
  9.272	  0.055	 -0.380
  9.276	  0.035	 -0.375
  9.280	  0.035	 -0.365
  9.284	  0.035	 -0.350
  9.288	  0.050	 -0.355
  9.292	  0.030	 -0.330
  9.296	  0.030	 -0.310
  9.300	  0.025	 -0.275
  9.304	  0.025	 -0.275
  9.308	  0.010	 -0.255
  9.312	  0.005	 -0.220
  9.316	  0.010	 -0.215
  9.320	 -0.020	 -0.200
  9.324	 -0.005	 -0.200
  9.328	 -0.005	 -0.190
  9.332	 -0.030	 -0.165
  9.336	 -0.020	 -0.180
  9.340	 -0.010	 -0.180
  9.344	 -0.040	 -0.200
  9.348	 -0.020	 -0.160
  9.352	 -0.020	 -0.170
  9.356	 -0.020	 -0.160
  9.360	 -0.055	 -0.160
  9.364	 -0.020	 -0.170
  9.368	 -0.040	 -0.170
  9.372	 -0.015	 -0.175
  9.376	 -0.030	 -0.175
  9.380	 -0.040	 -0.180
  9.384	 -0.030	 -0.210
  9.388	 -0.030	 -0.200
  9.392	 -0.010	 -0.200
  9.396	 -0.020	 -0.195
  9.400	 -0.020	 -0.185
  9.404	 -0.010	 -0.195
  9.408	 -0.005	 -0.180
  9.412	  0.000	 -0.185
  9.416	 -0.010	 -0.170
  9.420	  0.000	 -0.170
  9.424	 -0.015	 -0.180
  9.428	 -0.005	 -0.180
  9.432	  0.005	 -0.190
  9.436	  0.000	 -0.205
  9.440	  0.000	 -0.205
  9.444	  0.005	 -0.200
  9.448	 -0.010	 -0.195
  9.452	  0.020	 -0.195
  9.456	  0.005	 -0.205
  9.460	  0.000	 -0.190
  9.464	  0.000	 -0.205
  9.468	  0.020	 -0.205
  9.472	  0.015	 -0.195
  9.476	  0.005	 -0.180
  9.480	  0.000	 -0.180
  9.484	  0.010	 -0.200
  9.488	  0.020	 -0.190
  9.492	  0.000	 -0.185
  9.496	  0.005	 -0.190
  9.500	 -0.005	 -0.180
  9.504	  0.000	 -0.190
  9.508	  0.010	 -0.190
  9.512	  0.015	 -0.190
  9.516	 -0.005	 -0.200
  9.520	 -0.005	 -0.210
  9.524	  0.000	 -0.210
  9.528	 -0.005	 -0.200
  9.532	 -0.005	 -0.190
  9.536	 -0.010	 -0.200
  9.540	 -0.005	 -0.190
  9.544	  0.010	 -0.205
  9.548	  0.010	 -0.205
  9.552	  0.000	 -0.200
  9.556	  0.000	 -0.190
  9.560	  0.010	 -0.195
  9.564	 -0.020	 -0.175
  9.568	 -0.010	 -0.200
  9.572	 -0.015	 -0.190
  9.576	  0.000	 -0.190
  9.580	  0.000	 -0.210
  9.584	 -0.020	 -0.170
  9.588	 -0.005	 -0.185
  9.592	 -0.005	 -0.185
  9.596	 -0.035	 -0.170
  9.600	 -0.015	 -0.170
  9.604	 -0.020	 -0.180
  9.608	 -0.025	 -0.180
  9.612	 -0.020	 -0.185
  9.616	 -0.025	 -0.165
  9.620	 -0.015	 -0.155
  9.624	  0.005	 -0.160
  9.628	  0.005	 -0.190
  9.632	 -0.005	 -0.165
  9.636	  0.005	 -0.155
  9.640	  0.000	 -0.150
  9.644	  0.000	 -0.160
  9.648	  0.000	 -0.160
  9.652	 -0.035	 -0.120
  9.656	 -0.015	 -0.110
  9.660	 -0.020	 -0.055
  9.664	  0.000	 -0.040
  9.668	 -0.005	 -0.035
  9.672	  0.010	 -0.005
  9.676	  0.005	  0.010
  9.680	  0.045	 -0.010
  9.684	  0.040	  0.010
  9.688	  0.060	  0.025
  9.692	  0.085	  0.000
  9.696	  0.090	 -0.020
  9.700	  0.110	 -0.015
  9.704	  0.090	  0.005
  9.708	  0.100	  0.020
  9.712	  0.085	  0.005
  9.716	  0.095	 -0.005
  9.720	  0.055	 -0.030
  9.724	  0.045	 -0.105
  9.728	  0.020	 -0.110
  9.732	  0.010	 -0.125
  9.736	 -0.010	 -0.110
  9.740	 -0.020	 -0.100
  9.744	 -0.065	 -0.090
  9.748	 -0.030	 -0.085
  9.752	 -0.060	 -0.105
  9.756	 -0.045	 -0.120
  9.760	 -0.045	 -0.130
  9.764	 -0.040	 -0.120
  9.768	 -0.025	 -0.140
  9.772	 -0.030	 -0.170
  9.776	 -0.030	 -0.195
  9.780	 -0.020	 -0.210
  9.784	  0.005	 -0.200
  9.788	  0.015	 -0.195
  9.792	  0.010	 -0.180
  9.796	  0.015	 -0.190
  9.800	  0.035	 -0.180
  9.804	  0.020	 -0.190
  9.808	  0.020	 -0.185
  9.812	  0.010	 -0.170
  9.816	  0.000	 -0.180
  9.820	  0.005	 -0.175
  9.824	 -0.005	 -0.170
  9.828	 -0.005	 -0.160
  9.832	  0.010	 -0.150
  9.836	 -0.010	 -0.150
  9.840	  0.010	 -0.140
  9.844	  0.020	 -0.100
  9.848	 -0.005	 -0.080
  9.852	  0.010	 -0.065
  9.856	 -0.005	 -0.030
  9.860	  0.010	  0.090
  9.864	  0.005	  0.335
  9.868	  0.020	  0.600
  9.872	  0.045	  0.820
  9.876	  0.060	  0.975
  9.880	  0.040	  1.070
  9.884	 -0.025	  1.095
  9.888	 -0.055	  0.990
  9.892	 -0.085	  0.730
  9.896	 -0.220	  0.375
  9.900	 -0.430	  0.190
  9.904	 -0.740	  0.250
  9.908	 -1.055	  0.295
  9.912	 -1.235	  0.170
  9.916	 -1.305	 -0.130
  9.920	 -1.260	 -0.380
  9.924	 -1.015	 -0.525
  9.928	 -0.610	 -0.575
  9.932	 -0.240	 -0.540
  9.936	 -0.125	 -0.395
  9.940	 -0.080	 -0.320
  9.944	 -0.130	 -0.310
  9.948	 -0.125	 -0.295
  9.952	 -0.105	 -0.295
  9.956	 -0.080	 -0.295
  9.960	 -0.030	 -0.300
  9.964	  0.015	 -0.300
  9.968	  0.050	 -0.300
  9.972	  0.095	 -0.295
  9.976	  0.090	 -0.305
  9.980	  0.085	 -0.295
  9.984	  0.100	 -0.285
  9.988	  0.100	 -0.305
  9.992	  0.085	 -0.305
  9.996	  0.080	 -0.295
 10.000	  0.090	 -0.310
 10.004	  0.110	 -0.305
 10.008	  0.095	 -0.300
 10.012	  0.105	 -0.285
 10.016	  0.110	 -0.290
 10.020	  0.125	 -0.275
 10.024	  0.125	 -0.300
 10.028	  0.120	 -0.310
 10.032	  0.115	 -0.300
 10.036	  0.110	 -0.320
 10.040	  0.100	 -0.295
 10.044	  0.110	 -0.290
 10.048	  0.105	 -0.320
 10.052	  0.105	 -0.310
 10.056	  0.110	 -0.300
 10.060	  0.110	 -0.305
 10.064	  0.105	 -0.330
 10.068	  0.125	 -0.340
 10.072	  0.100	 -0.330
 10.076	  0.110	 -0.325
 10.080	  0.110	 -0.320
 10.084	  0.105	 -0.340
 10.088	  0.100	 -0.355
 10.092	  0.110	 -0.340
 10.096	  0.110	 -0.360
 10.100	  0.105	 -0.360
 10.104	  0.100	 -0.340
 10.108	  0.085	 -0.360
 10.112	  0.090	 -0.360
 10.116	  0.080	 -0.350
 10.120	  0.095	 -0.355
 10.124	  0.095	 -0.345
 10.128	  0.060	 -0.335
 10.132	  0.080	 -0.325
 10.136	  0.060	 -0.300
 10.140	  0.090	 -0.300
 10.144	  0.070	 -0.275
 10.148	  0.080	 -0.260
 10.152	  0.080	 -0.250
 10.156	  0.055	 -0.230
 10.160	  0.040	 -0.195
 10.164	  0.055	 -0.185
 10.168	  0.045	 -0.170
 10.172	  0.010	 -0.155
 10.176	  0.010	 -0.160
 10.180	  0.015	 -0.130
 10.184	  0.015	 -0.130
 10.188	  0.010	 -0.130
 10.192	  0.030	 -0.115
 10.196	  0.020	 -0.110
 10.200	  0.020	 -0.125
 10.204	  0.020	 -0.120
 10.208	  0.000	 -0.110
 10.212	  0.005	 -0.115
 10.216	  0.025	 -0.115
 10.220	  0.020	 -0.115
 10.224	  0.015	 -0.120
 10.228	  0.000	 -0.130
 10.232	  0.010	 -0.130
 10.236	  0.035	 -0.115
 10.240	  0.040	 -0.135
 10.244	  0.040	 -0.145
 10.248	  0.035	 -0.155
 10.252	  0.035	 -0.150
 10.256	  0.040	 -0.140
 10.260	  0.035	 -0.145
 10.264	  0.055	 -0.135
 10.268	  0.040	 -0.130
 10.272	  0.065	 -0.130
 10.276	  0.065	 -0.150
 10.280	  0.075	 -0.150
 10.284	  0.055	 -0.150
 10.288	  0.065	 -0.150
 10.292	  0.055	 -0.145
 10.296	  0.070	 -0.135
 10.300	  0.070	 -0.150
 10.304	  0.075	 -0.140
 10.308	  0.060	 -0.140
 10.312	  0.075	 -0.170
 10.316	  0.045	 -0.155
 10.320	  0.060	 -0.150
 10.324	  0.060	 -0.155
 10.328	  0.055	 -0.165
 10.332	  0.050	 -0.150
 10.336	  0.050	 -0.150
 10.340	  0.045	 -0.135
 10.344	  0.060	 -0.185
 10.348	  0.060	 -0.150
 10.352	  0.050	 -0.155
 10.356	  0.040	 -0.170
 10.360	  0.055	 -0.170
 10.364	  0.065	 -0.180
 10.368	  0.060	 -0.175
 10.372	  0.040	 -0.180
 10.376	  0.035	 -0.165
 10.380	  0.060	 -0.190
 10.384	  0.055	 -0.175
 10.388	  0.045	 -0.180
 10.392	  0.050	 -0.180
 10.396	  0.035	 -0.185
 10.400	  0.045	 -0.200
 10.404	  0.035	 -0.205
 10.408	  0.040	 -0.210
 10.412	  0.060	 -0.190
 10.416	  0.040	 -0.200
 10.420	  0.030	 -0.175
 10.424	  0.040	 -0.210
 10.428	  0.030	 -0.195
 10.432	  0.040	 -0.180
 10.436	  0.065	 -0.205
 10.440	  0.045	 -0.175
 10.444	  0.050	 -0.200
 10.448	  0.055	 -0.175
 10.452	  0.040	 -0.185
 10.456	  0.035	 -0.195
 10.460	  0.035	 -0.205
 10.464	  0.050	 -0.195
 10.468	  0.055	 -0.175
 10.472	  0.070	 -0.185
 10.476	  0.040	 -0.195
 10.480	  0.050	 -0.180
 10.484	  0.040	 -0.200
 10.488	  0.030	 -0.185
 10.492	  0.050	 -0.175
 10.496	  0.025	 -0.170
 10.500	  0.030	 -0.160
 10.504	  0.040	 -0.135
 10.508	  0.055	 -0.070
 10.512	  0.055	 -0.075
 10.516	  0.055	 -0.035
 10.520	  0.050	 -0.015
 10.524	  0.050	 -0.020
 10.528	  0.085	 -0.025
 10.532	  0.080	 -0.005
 10.536	  0.115	 -0.005
 10.540	  0.140	  0.000
 10.544	  0.150	 -0.035
 10.548	  0.160	  0.000
 10.552	  0.155	 -0.020
 10.556	  0.170	 -0.015
 10.560	  0.125	 -0.025
 10.564	  0.115	 -0.020
 10.568	  0.080	 -0.065
 10.572	  0.055	 -0.105
 10.576	  0.060	 -0.130
 10.580	  0.010	 -0.145
 10.584	 -0.010	 -0.140
 10.588	 -0.005	 -0.125
 10.592	 -0.010	 -0.100
 10.596	 -0.015	 -0.100
 10.600	 -0.020	 -0.100
 10.604	 -0.010	 -0.125
 10.608	 -0.010	 -0.125
 10.612	 -0.005	 -0.135
 10.616	  0.015	 -0.155
 10.620	  0.020	 -0.160
 10.624	  0.020	 -0.205
 10.628	  0.015	 -0.205
 10.632	  0.030	 -0.220
 10.636	  0.040	 -0.220
 10.640	  0.055	 -0.210
 10.644	  0.055	 -0.200
 10.648	  0.055	 -0.200
 10.652	  0.055	 -0.175
 10.656	  0.070	 -0.210
 10.660	  0.060	 -0.190
 10.664	  0.080	 -0.180
 10.668	  0.065	 -0.190
 10.672	  0.075	 -0.190
 10.676	  0.045	 -0.185
 10.680	  0.060	 -0.175
 10.684	  0.060	 -0.175
 10.688	  0.070	 -0.165
 10.692	  0.060	 -0.130
 10.696	  0.080	 -0.100
 10.700	  0.070	 -0.050
 10.704	  0.070	 -0.040
 10.708	  0.065	  0.000
 10.712	  0.060	  0.170
 10.716	  0.060	  0.430
 10.720	  0.095	  0.690
 10.724	  0.115	  0.890
 10.728	  0.125	  1.045
 10.732	  0.075	  1.100
 10.736	  0.050	  1.070
 10.740	  0.005	  0.915
 10.744	 -0.055	  0.570
 10.748	 -0.195	  0.170
 10.752	 -0.480	  0.050
 10.756	 -0.820	  0.180
 10.760	 -1.130	  0.310
 10.764	 -1.330	  0.190
 10.768	 -1.415	 -0.095
 10.772	 -1.365	 -0.360
 10.776	 -1.100	 -0.530
 10.780	 -0.640	 -0.585
 10.784	 -0.250	 -0.575
 10.788	 -0.065	 -0.480
 10.792	 -0.010	 -0.370
 10.796	 -0.045	 -0.320
 10.800	 -0.035	 -0.310
 10.804	 -0.060	 -0.315
 10.808	 -0.040	 -0.310
 10.812	  0.000	 -0.310
 10.816	  0.065	 -0.320
 10.820	  0.120	 -0.330
 10.824	  0.145	 -0.305
 10.828	  0.145	 -0.315
 10.832	  0.150	 -0.310
 10.836	  0.140	 -0.305
 10.840	  0.175	 -0.315
 10.844	  0.165	 -0.305
 10.848	  0.175	 -0.310
 10.852	  0.150	 -0.320
 10.856	  0.180	 -0.310
 10.860	  0.200	 -0.310
 10.864	  0.175	 -0.290
 10.868	  0.180	 -0.295
 10.872	  0.175	 -0.280
 10.876	  0.200	 -0.315
 10.880	  0.185	 -0.310
 10.884	  0.170	 -0.310
 10.888	  0.180	 -0.305
 10.892	  0.165	 -0.295
 10.896	  0.200	 -0.300
 10.900	  0.175	 -0.300
 10.904	  0.175	 -0.320
 10.908	  0.170	 -0.310
 10.912	  0.180	 -0.330
 10.916	  0.160	 -0.335
 10.920	  0.175	 -0.330
 10.924	  0.155	 -0.325
 10.928	  0.170	 -0.335
 10.932	  0.165	 -0.320
 10.936	  0.160	 -0.340
 10.940	  0.180	 -0.350
 10.944	  0.160	 -0.340
 10.948	  0.150	 -0.345
 10.952	  0.160	 -0.355
 10.956	  0.155	 -0.365
 10.960	  0.155	 -0.370
 10.964	  0.170	 -0.370
 10.968	  0.175	 -0.360
 10.972	  0.135	 -0.355
 10.976	  0.150	 -0.335
 10.980	  0.140	 -0.345
 10.984	  0.150	 -0.340
 10.988	  0.140	 -0.310
 10.992	  0.120	 -0.290
 10.996	  0.135	 -0.305
 11.000	  0.140	 -0.290
 11.004	  0.120	 -0.280
 11.008	  0.100	 -0.255
 11.012	  0.095	 -0.225
 11.016	  0.100	 -0.215
 11.020	  0.090	 -0.215
 11.024	  0.110	 -0.190
 11.028	  0.085	 -0.180
 11.032	  0.075	 -0.160
 11.036	  0.090	 -0.170
 11.040	  0.055	 -0.150
 11.044	  0.050	 -0.130
 11.048	  0.050	 -0.160
 11.052	  0.050	 -0.155
 11.056	  0.060	 -0.140
 11.060	  0.050	 -0.140
 11.064	  0.025	 -0.150
 11.068	  0.050	 -0.160
 11.072	  0.020	 -0.155
 11.076	  0.035	 -0.145
 11.080	  0.035	 -0.150
 11.084	  0.035	 -0.170
 11.088	  0.035	 -0.155
 11.092	  0.055	 -0.165
 11.096	  0.040	 -0.180
 11.100	  0.050	 -0.180
 11.104	  0.045	 -0.185
 11.108	  0.045	 -0.200
 11.112	  0.070	 -0.200
 11.116	  0.040	 -0.190
 11.120	  0.060	 -0.200
 11.124	  0.040	 -0.225
 11.128	  0.060	 -0.200
 11.132	  0.040	 -0.230
 11.136	  0.025	 -0.235
 11.140	  0.045	 -0.245
 11.144	  0.055	 -0.235
 11.148	  0.035	 -0.230
 11.152	  0.055	 -0.220
 11.156	  0.055	 -0.240
 11.160	  0.050	 -0.240
 11.164	  0.060	 -0.235
 11.168	  0.070	 -0.260
 11.172	  0.045	 -0.240
 11.176	  0.050	 -0.250
 11.180	  0.055	 -0.255
 11.184	  0.050	 -0.250
 11.188	  0.060	 -0.250
 11.192	  0.070	 -0.240
 11.196	  0.055	 -0.260
 11.200	  0.060	 -0.255
 11.204	  0.040	 -0.255
 11.208	  0.040	 -0.245
 11.212	  0.050	 -0.235
 11.216	  0.040	 -0.255
 11.220	  0.020	 -0.260
 11.224	  0.055	 -0.240
 11.228	  0.050	 -0.250
 11.232	  0.055	 -0.260
 11.236	  0.040	 -0.250
 11.240	  0.035	 -0.265
 11.244	  0.040	 -0.260
 11.248	  0.035	 -0.255
 11.252	  0.030	 -0.245
 11.256	  0.030	 -0.270
 11.260	  0.030	 -0.240
 11.264	  0.015	 -0.260
 11.268	  0.030	 -0.260
 11.272	  0.005	 -0.250
 11.276	  0.030	 -0.250
 11.280	  0.030	 -0.260
 11.284	  0.030	 -0.270
 11.288	  0.015	 -0.285
 11.292	  0.015	 -0.260
 11.296	  0.020	 -0.275
 11.300	  0.030	 -0.260
 11.304	  0.015	 -0.260
 11.308	  0.010	 -0.255
 11.312	  0.025	 -0.230
 11.316	  0.055	 -0.260
 11.320	  0.010	 -0.245
 11.324	  0.020	 -0.240
 11.328	  0.010	 -0.255
 11.332	  0.025	 -0.255
 11.336	  0.025	 -0.255
 11.340	  0.005	 -0.255
 11.344	  0.005	 -0.245
 11.348	  0.005	 -0.245
 11.352	  0.000	 -0.255
 11.356	  0.015	 -0.250
 11.360	  0.015	 -0.240
 11.364	  0.015	 -0.235
 11.368	  0.025	 -0.240
 11.372	  0.000	 -0.200
 11.376	  0.015	 -0.185
 11.380	  0.025	 -0.175
 11.384	  0.000	 -0.130
 11.388	 -0.010	 -0.100
 11.392	  0.005	 -0.105
 11.396	  0.020	 -0.100
 11.400	  0.030	 -0.105
 11.404	  0.050	 -0.105
 11.408	  0.085	 -0.080
 11.412	  0.110	 -0.090
 11.416	  0.110	 -0.110
 11.420	  0.110	 -0.100
 11.424	  0.115	 -0.090
 11.428	  0.105	 -0.085
 11.432	  0.070	 -0.090
 11.436	  0.045	 -0.080
 11.440	  0.030	 -0.140
 11.444	  0.010	 -0.180
 11.448	  0.005	 -0.250
 11.452	 -0.035	 -0.250
 11.456	 -0.040	 -0.240
 11.460	 -0.055	 -0.225
 11.464	 -0.045	 -0.225
 11.468	 -0.070	 -0.235
 11.472	 -0.065	 -0.225
 11.476	 -0.050	 -0.220
 11.480	 -0.060	 -0.230
 11.484	 -0.040	 -0.230
 11.488	 -0.065	 -0.255
 11.492	 -0.045	 -0.270
 11.496	 -0.030	 -0.275
 11.500	 -0.050	 -0.305
 11.504	 -0.010	 -0.325
 11.508	  0.010	 -0.315
 11.512	  0.015	 -0.310
 11.516	  0.020	 -0.280
 11.520	  0.020	 -0.285
 11.524	  0.020	 -0.300
 11.528	  0.025	 -0.300
 11.532	  0.010	 -0.285
 11.536	  0.005	 -0.300
 11.540	  0.000	 -0.255
 11.544	  0.005	 -0.295
 11.548	  0.000	 -0.285
 11.552	  0.005	 -0.275
 11.556	  0.005	 -0.255
 11.560	 -0.005	 -0.275
 11.564	  0.000	 -0.260
 11.568	  0.000	 -0.245
 11.572	  0.000	 -0.190
 11.576	 -0.005	 -0.150
 11.580	 -0.025	 -0.135
 11.584	 -0.020	 -0.080
 11.588	  0.000	  0.070
 11.592	  0.000	  0.320
 11.596	  0.030	  0.570
 11.600	  0.055	  0.750
 11.604	  0.050	  0.830
 11.608	 -0.005	  0.835
 11.612	 -0.040	  0.775
 11.616	 -0.080	  0.580
 11.620	 -0.160	  0.285
 11.624	 -0.355	 -0.015
 11.628	 -0.645	 -0.075
 11.632	 -0.970	  0.080
 11.636	 -1.290	  0.210
 11.640	 -1.450	  0.075
 11.644	 -1.480	 -0.235
 11.648	 -1.400	 -0.500
 11.652	 -1.070	 -0.640
 11.656	 -0.615	 -0.690
 11.660	 -0.245	 -0.635
 11.664	 -0.085	 -0.545
 11.668	 -0.060	 -0.445
 11.672	 -0.120	 -0.415
 11.676	 -0.135	 -0.410
 11.680	 -0.125	 -0.415
 11.684	 -0.090	 -0.425
 11.688	 -0.030	 -0.425
 11.692	  0.030	 -0.410
 11.696	  0.070	 -0.415
 11.700	  0.075	 -0.405
 11.704	  0.115	 -0.400
 11.708	  0.105	 -0.390
 11.712	  0.105	 -0.415
 11.716	  0.115	 -0.405
 11.720	  0.125	 -0.395
 11.724	  0.135	 -0.400
 11.728	  0.095	 -0.385
 11.732	  0.130	 -0.395
 11.736	  0.130	 -0.400
 11.740	  0.115	 -0.410
 11.744	  0.120	 -0.415
 11.748	  0.140	 -0.400
 11.752	  0.125	 -0.410
 11.756	  0.140	 -0.395
 11.760	  0.150	 -0.395
 11.764	  0.155	 -0.385
 11.768	  0.135	 -0.405
 11.772	  0.125	 -0.400
 11.776	  0.135	 -0.420
 11.780	  0.130	 -0.410
 11.784	  0.130	 -0.400
 11.788	  0.100	 -0.420
 11.792	  0.120	 -0.440
 11.796	  0.120	 -0.435
 11.800	  0.110	 -0.450
 11.804	  0.130	 -0.415
 11.808	  0.100	 -0.430
 11.812	  0.130	 -0.410
 11.816	  0.110	 -0.430
 11.820	  0.120	 -0.425
 11.824	  0.105	 -0.440
 11.828	  0.105	 -0.435
 11.832	  0.110	 -0.455
 11.836	  0.090	 -0.445
 11.840	  0.075	 -0.440
 11.844	  0.080	 -0.430
 11.848	  0.090	 -0.440
 11.852	  0.095	 -0.430
 11.856	  0.085	 -0.425
 11.860	  0.050	 -0.415
 11.864	  0.075	 -0.400
 11.868	  0.090	 -0.380
 11.872	  0.070	 -0.375
 11.876	  0.075	 -0.350
 11.880	  0.055	 -0.335
 11.884	  0.065	 -0.315
 11.888	  0.055	 -0.310
 11.892	  0.050	 -0.295
 11.896	  0.045	 -0.280
 11.900	  0.030	 -0.275
 11.904	  0.010	 -0.270
 11.908	  0.000	 -0.275
 11.912	 -0.015	 -0.245
 11.916	  0.000	 -0.245
 11.920	 -0.005	 -0.225
 11.924	 -0.015	 -0.225
 11.928	 -0.020	 -0.250
 11.932	 -0.020	 -0.225
 11.936	  0.000	 -0.245
 11.940	 -0.010	 -0.240
 11.944	  0.000	 -0.245
 11.948	  0.000	 -0.230
 11.952	 -0.015	 -0.255
 11.956	 -0.010	 -0.245
 11.960	 -0.025	 -0.230
 11.964	 -0.025	 -0.255
 11.968	  0.000	 -0.235
 11.972	 -0.010	 -0.260
 11.976	  0.000	 -0.265
 11.980	 -0.005	 -0.265
 11.984	 -0.005	 -0.280
 11.988	 -0.015	 -0.275
 11.992	  0.000	 -0.290
 11.996	 -0.005	 -0.270
 12.000	 -0.005	 -0.260
 12.004	  0.000	 -0.260
 12.008	  0.010	 -0.285
 12.012	  0.005	 -0.295
 12.016	  0.010	 -0.290
 12.020	  0.000	 -0.280
 12.024	  0.005	 -0.265
 12.028	  0.005	 -0.280
 12.032	  0.000	 -0.280
 12.036	 -0.005	 -0.300
 12.040	  0.005	 -0.285
 12.044	  0.015	 -0.290
 12.048	  0.020	 -0.290
 12.052	  0.010	 -0.280
 12.056	  0.020	 -0.285
 12.060	  0.010	 -0.260
 12.064	  0.005	 -0.270
 12.068	  0.010	 -0.275
 12.072	  0.005	 -0.275
 12.076	  0.015	 -0.300
 12.080	  0.015	 -0.260
 12.084	  0.015	 -0.285
 12.088	  0.000	 -0.280
 12.092	 -0.010	 -0.275
 12.096	  0.010	 -0.295
 12.100	  0.000	 -0.275
 12.104	 -0.005	 -0.275
 12.108	  0.000	 -0.280
 12.112	  0.005	 -0.270
 12.116	  0.000	 -0.280
 12.120	  0.000	 -0.305
 12.124	 -0.010	 -0.295
 12.128	  0.010	 -0.290
 12.132	 -0.015	 -0.275
 12.136	 -0.025	 -0.285
 12.140	 -0.035	 -0.285
 12.144	 -0.035	 -0.290
 12.148	  0.005	 -0.285
 12.152	 -0.030	 -0.285
 12.156	 -0.065	 -0.290
 12.160	 -0.040	 -0.280
 12.164	 -0.040	 -0.285
 12.168	 -0.050	 -0.290
 12.172	 -0.040	 -0.290
 12.176	 -0.055	 -0.295
 12.180	 -0.040	 -0.285
 12.184	 -0.040	 -0.295
 12.188	 -0.040	 -0.300
 12.192	 -0.060	 -0.290
 12.196	 -0.045	 -0.315
 12.200	 -0.045	 -0.300
 12.204	 -0.065	 -0.305
 12.208	 -0.050	 -0.285
 12.212	 -0.045	 -0.285
 12.216	 -0.065	 -0.290
 12.220	 -0.065	 -0.270
 12.224	 -0.055	 -0.285
 12.228	 -0.050	 -0.295
 12.232	 -0.055	 -0.270
 12.236	 -0.065	 -0.240
 12.240	 -0.080	 -0.210
 12.244	 -0.060	 -0.150
 12.248	 -0.065	 -0.150
 12.252	 -0.065	 -0.140
 12.256	 -0.065	 -0.145
 12.260	 -0.035	 -0.150
 12.264	 -0.040	 -0.140
 12.268	 -0.010	 -0.130
 12.272	  0.000	 -0.145
 12.276	  0.000	 -0.160
 12.280	  0.040	 -0.150
 12.284	  0.035	 -0.130
 12.288	  0.025	 -0.125
 12.292	  0.010	 -0.110
 12.296	 -0.005	 -0.120
 12.300	  0.000	 -0.185
 12.304	 -0.050	 -0.215
 12.308	 -0.070	 -0.250
 12.312	 -0.075	 -0.255
 12.316	 -0.080	 -0.250
 12.320	 -0.105	 -0.240
 12.324	 -0.115	 -0.230
 12.328	 -0.120	 -0.250
 12.332	 -0.140	 -0.265
 12.336	 -0.120	 -0.265
 12.340	 -0.140	 -0.270
 12.344	 -0.125	 -0.285
 12.348	 -0.110	 -0.275
 12.352	 -0.105	 -0.310
 12.356	 -0.100	 -0.330
 12.360	 -0.080	 -0.340
 12.364	 -0.085	 -0.320
 12.368	 -0.080	 -0.320
 12.372	 -0.030	 -0.325
 12.376	 -0.035	 -0.325
 12.380	 -0.065	 -0.325
 12.384	 -0.060	 -0.330
 12.388	 -0.040	 -0.340
 12.392	 -0.040	 -0.330
 12.396	 -0.050	 -0.310
 12.400	 -0.075	 -0.320
 12.404	 -0.075	 -0.310
 12.408	 -0.060	 -0.310
 12.412	 -0.050	 -0.325
 12.416	 -0.055	 -0.315
 12.420	 -0.065	 -0.290
 12.424	 -0.065	 -0.270
 12.428	 -0.060	 -0.250
 12.432	 -0.070	 -0.210
 12.436	 -0.065	 -0.215
 12.440	 -0.080	 -0.195
 12.444	 -0.075	 -0.040
 12.448	 -0.065	  0.200
 12.452	 -0.040	  0.445
 12.456	 -0.010	  0.635
 12.460	 -0.010	  0.785
 12.464	 -0.085	  0.890
 12.468	 -0.120	  0.890
 12.472	 -0.150	  0.810
 12.476	 -0.195	  0.595
 12.480	 -0.325	  0.255
 12.484	 -0.565	  0.080
 12.488	 -0.870	  0.110
 12.492	 -1.165	  0.170
 12.496	 -1.310	  0.020
 12.500	 -1.340	 -0.270
 12.504	 -1.270	 -0.525
 12.508	 -1.030	 -0.675
 12.512	 -0.660	 -0.740
 12.516	 -0.340	 -0.715
 12.520	 -0.195	 -0.605
 12.524	 -0.180	 -0.525
 12.528	 -0.215	 -0.465
 12.532	 -0.215	 -0.460
 12.536	 -0.200	 -0.465
 12.540	 -0.170	 -0.450
 12.544	 -0.145	 -0.465
 12.548	 -0.100	 -0.490
 12.552	 -0.065	 -0.475
 12.556	 -0.020	 -0.460
 12.560	  0.000	 -0.455
 12.564	  0.005	 -0.460
 12.568	  0.005	 -0.465
 12.572	  0.005	 -0.465
 12.576	  0.005	 -0.480
 12.580	 -0.005	 -0.450
 12.584	  0.000	 -0.475
 12.588	  0.015	 -0.470
 12.592	  0.030	 -0.470
 12.596	  0.025	 -0.480
 12.600	  0.025	 -0.450
 12.604	  0.010	 -0.485
 12.608	  0.035	 -0.485
 12.612	  0.030	 -0.490
 12.616	  0.020	 -0.475
 12.620	  0.035	 -0.475
 12.624	  0.040	 -0.460
 12.628	  0.030	 -0.470
 12.632	  0.005	 -0.460
 12.636	  0.015	 -0.475
 12.640	  0.035	 -0.495
 12.644	  0.040	 -0.495
 12.648	  0.030	 -0.495
 12.652	  0.035	 -0.480
 12.656	  0.040	 -0.480
 12.660	  0.035	 -0.500
 12.664	  0.035	 -0.515
 12.668	  0.040	 -0.500
 12.672	  0.015	 -0.505
 12.676	  0.020	 -0.520
 12.680	  0.035	 -0.510
 12.684	  0.045	 -0.505
 12.688	  0.025	 -0.525
 12.692	  0.020	 -0.525
 12.696	  0.015	 -0.495
 12.700	  0.035	 -0.500
 12.704	  0.030	 -0.480
 12.708	  0.035	 -0.480
 12.712	  0.025	 -0.485
 12.716	  0.010	 -0.475
 12.720	  0.020	 -0.465
 12.724	  0.015	 -0.435
 12.728	  0.005	 -0.430
 12.732	  0.015	 -0.420
 12.736	  0.010	 -0.410
 12.740	  0.015	 -0.375
 12.744	 -0.005	 -0.350
 12.748	 -0.005	 -0.330
 12.752	 -0.030	 -0.315
 12.756	  0.000	 -0.305
 12.760	 -0.020	 -0.285
 12.764	 -0.035	 -0.280
 12.768	 -0.050	 -0.270
 12.772	 -0.040	 -0.265
 12.776	 -0.050	 -0.265
 12.780	 -0.050	 -0.220
 12.784	 -0.055	 -0.240
 12.788	 -0.055	 -0.250
 12.792	 -0.060	 -0.245
 12.796	 -0.045	 -0.240
 12.800	 -0.055	 -0.245
 12.804	 -0.050	 -0.270
 12.808	 -0.050	 -0.250
 12.812	 -0.040	 -0.250
 12.816	 -0.040	 -0.245
 12.820	 -0.055	 -0.260
 12.824	 -0.050	 -0.265
 12.828	 -0.030	 -0.265
 12.832	 -0.030	 -0.275
 12.836	 -0.040	 -0.275
 12.840	 -0.035	 -0.270
 12.844	 -0.025	 -0.285
 12.848	 -0.030	 -0.270
 12.852	 -0.015	 -0.260
 12.856	 -0.035	 -0.280
 12.860	 -0.035	 -0.300
 12.864	 -0.025	 -0.275
 12.868	 -0.020	 -0.280
 12.872	 -0.025	 -0.290
 12.876	 -0.020	 -0.280
 12.880	 -0.025	 -0.285
 12.884	 -0.010	 -0.275
 12.888	 -0.010	 -0.285
 12.892	 -0.025	 -0.270
 12.896	 -0.015	 -0.270
 12.900	 -0.025	 -0.270
 12.904	 -0.020	 -0.285
 12.908	 -0.005	 -0.265
 12.912	 -0.020	 -0.275
 12.916	  0.000	 -0.290
 12.920	 -0.005	 -0.275
 12.924	  0.005	 -0.280
 12.928	  0.000	 -0.285
 12.932	 -0.005	 -0.280
 12.936	 -0.010	 -0.280
 12.940	 -0.025	 -0.280
 12.944	 -0.005	 -0.285
 12.948	 -0.015	 -0.290
 12.952	  0.000	 -0.290
 12.956	 -0.020	 -0.280
 12.960	 -0.010	 -0.265
 12.964	 -0.035	 -0.290
 12.968	 -0.010	 -0.290
 12.972	 -0.020	 -0.270
 12.976	 -0.030	 -0.270
 12.980	 -0.035	 -0.290
 12.984	 -0.020	 -0.280
 12.988	 -0.035	 -0.290
 12.992	 -0.030	 -0.280
 12.996	 -0.020	 -0.285
 13.000	 -0.050	 -0.295
 13.004	 -0.040	 -0.295
 13.008	 -0.035	 -0.280
 13.012	 -0.030	 -0.295
 13.016	 -0.040	 -0.290
 13.020	 -0.050	 -0.295
 13.024	 -0.030	 -0.290
 13.028	 -0.040	 -0.305
 13.032	 -0.020	 -0.300
 13.036	 -0.040	 -0.275
 13.040	 -0.060	 -0.290
 13.044	 -0.045	 -0.295
 13.048	 -0.065	 -0.295
 13.052	 -0.055	 -0.275
 13.056	 -0.045	 -0.280
 13.060	 -0.050	 -0.265
 13.064	 -0.065	 -0.280
 13.068	 -0.055	 -0.265
 13.072	 -0.040	 -0.265
 13.076	 -0.060	 -0.265
 13.080	 -0.045	 -0.270
 13.084	 -0.050	 -0.270
 13.088	 -0.035	 -0.235
 13.092	 -0.020	 -0.200
 13.096	 -0.035	 -0.175
 13.100	 -0.050	 -0.135
 13.104	 -0.035	 -0.115
 13.108	 -0.040	 -0.105
 13.112	 -0.015	 -0.110
 13.116	 -0.015	 -0.115
 13.120	  0.000	 -0.115
 13.124	  0.025	 -0.095
 13.128	  0.025	 -0.105
 13.132	  0.035	 -0.130
 13.136	  0.060	 -0.110
 13.140	  0.055	 -0.095
 13.144	  0.030	 -0.100
 13.148	  0.035	 -0.105
 13.152	  0.010	 -0.130
 13.156	 -0.015	 -0.155
 13.160	 -0.035	 -0.210
 13.164	 -0.045	 -0.260
 13.168	 -0.070	 -0.250
 13.172	 -0.080	 -0.230
 13.176	 -0.100	 -0.225
 13.180	 -0.105	 -0.235
 13.184	 -0.120	 -0.225
 13.188	 -0.120	 -0.240
 13.192	 -0.125	 -0.240
 13.196	 -0.125	 -0.235
 13.200	 -0.090	 -0.235
 13.204	 -0.090	 -0.270
 13.208	 -0.090	 -0.285
 13.212	 -0.090	 -0.295
 13.216	 -0.095	 -0.335
 13.220	 -0.085	 -0.330
 13.224	 -0.065	 -0.340
 13.228	 -0.035	 -0.315
 13.232	 -0.030	 -0.335
 13.236	 -0.040	 -0.325
 13.240	 -0.050	 -0.315
 13.244	 -0.065	 -0.310
 13.248	 -0.060	 -0.315
 13.252	 -0.045	 -0.305
 13.256	 -0.045	 -0.300
 13.260	 -0.045	 -0.315
 13.264	 -0.050	 -0.300
 13.268	 -0.060	 -0.305
 13.272	 -0.045	 -0.315
 13.276	 -0.035	 -0.300
 13.280	 -0.060	 -0.280
 13.284	 -0.050	 -0.235
 13.288	 -0.070	 -0.210
 13.292	 -0.050	 -0.185
 13.296	 -0.075	 -0.110
 13.300	 -0.055	  0.055
 13.304	 -0.055	  0.350
 13.308	 -0.020	  0.590
 13.312	 -0.005	  0.795
 13.316	 -0.010	  0.935
 13.320	 -0.045	  1.025
 13.324	 -0.100	  1.000
 13.328	 -0.105	  0.840
 13.332	 -0.160	  0.520
 13.336	 -0.340	  0.155
 13.340	 -0.600	  0.005
 13.344	 -0.895	  0.090
 13.348	 -1.180	  0.155
 13.352	 -1.320	  0.010
 13.356	 -1.365	 -0.275
 13.360	 -1.295	 -0.525
 13.364	 -0.980	 -0.675
 13.368	 -0.590	 -0.740
 13.372	 -0.285	 -0.705
 13.376	 -0.160	 -0.610
 13.380	 -0.130	 -0.530
 13.384	 -0.175	 -0.460
 13.388	 -0.150	 -0.440
 13.392	 -0.155	 -0.460
 13.396	 -0.135	 -0.460
 13.400	 -0.085	 -0.470
 13.404	 -0.045	 -0.470
 13.408	  0.000	 -0.440
 13.412	  0.025	 -0.435
 13.416	  0.035	 -0.460
 13.420	  0.055	 -0.460
 13.424	  0.035	 -0.450
 13.428	  0.040	 -0.460
 13.432	  0.060	 -0.460
 13.436	  0.065	 -0.440
 13.440	  0.060	 -0.455
 13.444	  0.060	 -0.465
 13.448	  0.070	 -0.460
 13.452	  0.055	 -0.470
 13.456	  0.085	 -0.460
 13.460	  0.070	 -0.450
 13.464	  0.095	 -0.450
 13.468	  0.105	 -0.440
 13.472	  0.065	 -0.455
 13.476	  0.085	 -0.455
 13.480	  0.090	 -0.440
 13.484	  0.090	 -0.460
 13.488	  0.065	 -0.465
 13.492	  0.085	 -0.465
 13.496	  0.110	 -0.455
 13.500	  0.110	 -0.455
 13.504	  0.100	 -0.455
 13.508	  0.095	 -0.475
 13.512	  0.110	 -0.460
 13.516	  0.090	 -0.485
 13.520	  0.095	 -0.485
 13.524	  0.075	 -0.485
 13.528	  0.085	 -0.470
 13.532	  0.095	 -0.490
 13.536	  0.085	 -0.495
 13.540	  0.065	 -0.495
 13.544	  0.080	 -0.500
 13.548	  0.080	 -0.515
 13.552	  0.080	 -0.490
 13.556	  0.080	 -0.500
 13.560	  0.060	 -0.485
 13.564	  0.080	 -0.490
 13.568	  0.070	 -0.485
 13.572	  0.080	 -0.480
 13.576	  0.060	 -0.450
 13.580	  0.055	 -0.440
 13.584	  0.070	 -0.445
 13.588	  0.070	 -0.420
 13.592	  0.090	 -0.385
 13.596	  0.060	 -0.375
 13.600	  0.035	 -0.330
 13.604	  0.060	 -0.330
 13.608	  0.040	 -0.305
 13.612	  0.020	 -0.285
 13.616	  0.030	 -0.305
 13.620	  0.000	 -0.280
 13.624	  0.025	 -0.260
 13.628	  0.010	 -0.250
 13.632	  0.010	 -0.250
 13.636	  0.015	 -0.235
 13.640	  0.005	 -0.225
 13.644	  0.000	 -0.250
 13.648	  0.010	 -0.235
 13.652	  0.000	 -0.220
 13.656	  0.020	 -0.245
 13.660	 -0.005	 -0.235
 13.664	  0.040	 -0.240
 13.668	  0.045	 -0.240
 13.672	  0.010	 -0.255
 13.676	  0.045	 -0.235
 13.680	  0.025	 -0.240
 13.684	  0.045	 -0.255
 13.688	  0.035	 -0.270
 13.692	  0.035	 -0.250
 13.696	  0.035	 -0.275
 13.700	  0.060	 -0.250
 13.704	  0.055	 -0.265
 13.708	  0.045	 -0.260
 13.712	  0.045	 -0.255
 13.716	  0.055	 -0.265
 13.720	  0.040	 -0.270
 13.724	  0.055	 -0.270
 13.728	  0.045	 -0.275
 13.732	  0.065	 -0.280
 13.736	  0.055	 -0.265
 13.740	  0.070	 -0.275
 13.744	  0.075	 -0.280
 13.748	  0.060	 -0.295
 13.752	  0.060	 -0.265
 13.756	  0.075	 -0.260
 13.760	  0.085	 -0.275
 13.764	  0.060	 -0.265
 13.768	  0.060	 -0.265
 13.772	  0.070	 -0.275
 13.776	  0.070	 -0.275
 13.780	  0.065	 -0.290
 13.784	  0.070	 -0.275
 13.788	  0.050	 -0.270
 13.792	  0.065	 -0.275
 13.796	  0.055	 -0.270
 13.800	  0.075	 -0.270
 13.804	  0.075	 -0.260
 13.808	  0.050	 -0.250
 13.812	  0.055	 -0.260
 13.816	  0.060	 -0.265
 13.820	  0.035	 -0.275
 13.824	  0.045	 -0.275
 13.828	  0.060	 -0.300
 13.832	  0.065	 -0.275
 13.836	  0.055	 -0.275
 13.840	  0.030	 -0.270
 13.844	  0.045	 -0.295
 13.848	  0.050	 -0.265
 13.852	  0.040	 -0.270
 13.856	  0.030	 -0.275
 13.860	  0.040	 -0.265
 13.864	  0.035	 -0.280
 13.868	  0.060	 -0.275
 13.872	  0.025	 -0.260
 13.876	  0.040	 -0.285
 13.880	  0.050	 -0.285
 13.884	  0.025	 -0.280
 13.888	  0.030	 -0.290
 13.892	  0.025	 -0.265
 13.896	  0.035	 -0.275
 13.900	  0.020	 -0.285
 13.904	  0.025	 -0.290
 13.908	  0.045	 -0.280
 13.912	  0.050	 -0.250
 13.916	  0.035	 -0.265
 13.920	  0.030	 -0.270
 13.924	  0.035	 -0.260
 13.928	  0.035	 -0.260
 13.932	  0.040	 -0.225
 13.936	  0.015	 -0.210
 13.940	  0.045	 -0.180
 13.944	  0.055	 -0.125
 13.948	  0.025	 -0.090
 13.952	  0.055	 -0.095
 13.956	  0.055	 -0.070
 13.960	  0.060	 -0.090
 13.964	  0.100	 -0.090
 13.968	  0.100	 -0.085
 13.972	  0.120	 -0.100
 13.976	  0.130	 -0.100
 13.980	  0.145	 -0.095
 13.984	  0.145	 -0.085
 13.988	  0.125	 -0.085
 13.992	  0.090	 -0.085
 13.996	  0.080	 -0.115
 14.000	  0.035	 -0.170
 14.004	  0.030	 -0.220
 14.008	  0.015	 -0.220
 14.012	 -0.010	 -0.205
 14.016	 -0.025	 -0.220
 14.020	 -0.035	 -0.185
 14.024	 -0.030	 -0.195
 14.028	 -0.040	 -0.200
 14.032	 -0.035	 -0.210
 14.036	 -0.030	 -0.200
 14.040	 -0.025	 -0.225
 14.044	 -0.010	 -0.230
 14.048	  0.000	 -0.250
 14.052	  0.005	 -0.295
 14.056	  0.000	 -0.300
 14.060	  0.005	 -0.290
 14.064	  0.030	 -0.290
 14.068	  0.060	 -0.280
 14.072	  0.065	 -0.290
 14.076	  0.045	 -0.290
 14.080	  0.060	 -0.280
 14.084	  0.045	 -0.270
 14.088	  0.045	 -0.275
 14.092	  0.030	 -0.280
 14.096	  0.040	 -0.265
 14.100	  0.045	 -0.275
 14.104	  0.035	 -0.265
 14.108	  0.035	 -0.260
 14.112	  0.035	 -0.260
 14.116	  0.035	 -0.240
 14.120	  0.045	 -0.215
 14.124	  0.045	 -0.195
 14.128	  0.020	 -0.180
 14.132	  0.010	 -0.145
 14.136	  0.025	 -0.045
 14.140	  0.040	  0.195
 14.144	  0.050	  0.485
 14.148	  0.065	  0.725
 14.152	  0.095	  0.880
 14.156	  0.060	  0.990
 14.160	  0.000	  0.975
 14.164	 -0.020	  0.825
 14.168	 -0.075	  0.515
 14.172	 -0.185	  0.135
 14.176	 -0.455	 -0.075
 14.180	 -0.785	  0.035
 14.184	 -1.115	  0.215
 14.188	 -1.355	  0.110
 14.192	 -1.455	 -0.180
 14.196	 -1.415	 -0.450
 14.200	 -1.165	 -0.630
 14.204	 -0.705	 -0.715
 14.208	 -0.325	 -0.660
 14.212	 -0.115	 -0.575
 14.216	 -0.055	 -0.480
 14.220	 -0.105	 -0.420
 14.224	 -0.100	 -0.425
 14.228	 -0.105	 -0.425
 14.232	 -0.095	 -0.425
 14.236	 -0.015	 -0.430
 14.240	  0.020	 -0.435
 14.244	  0.055	 -0.435
 14.248	  0.100	 -0.440
 14.252	  0.105	 -0.435
 14.256	  0.095	 -0.430
 14.260	  0.130	 -0.430
 14.264	  0.120	 -0.425
 14.268	  0.115	 -0.425
 14.272	  0.110	 -0.430
 14.276	  0.125	 -0.415
 14.280	  0.120	 -0.425
 14.284	  0.125	 -0.425
 14.288	  0.125	 -0.435
 14.292	  0.160	 -0.415
 14.296	  0.140	 -0.405
 14.300	  0.130	 -0.420
 14.304	  0.135	 -0.425
 14.308	  0.145	 -0.410
 14.312	  0.150	 -0.425
 14.316	  0.150	 -0.425
 14.320	  0.145	 -0.425
 14.324	  0.145	 -0.435
 14.328	  0.145	 -0.435
 14.332	  0.140	 -0.425
 14.336	  0.145	 -0.430
 14.340	  0.140	 -0.425
 14.344	  0.130	 -0.450
 14.348	  0.140	 -0.430
 14.352	  0.150	 -0.470
 14.356	  0.150	 -0.420
 14.360	  0.150	 -0.440
 14.364	  0.135	 -0.445
 14.368	  0.130	 -0.445
 14.372	  0.130	 -0.440
 14.376	  0.140	 -0.470
 14.380	  0.120	 -0.445
 14.384	  0.125	 -0.435
 14.388	  0.130	 -0.440
 14.392	  0.120	 -0.430
 14.396	  0.125	 -0.435
 14.400	  0.115	 -0.425
 14.404	  0.135	 -0.400
 14.408	  0.125	 -0.390
 14.412	  0.120	 -0.380
 14.416	  0.120	 -0.365
 14.420	  0.120	 -0.345
 14.424	  0.095	 -0.340
 14.428	  0.085	 -0.315
 14.432	  0.080	 -0.300
 14.436	  0.105	 -0.280
 14.440	  0.065	 -0.295
 14.444	  0.040	 -0.275
 14.448	  0.040	 -0.265
 14.452	  0.055	 -0.255
 14.456	  0.030	 -0.260
 14.460	  0.035	 -0.265
 14.464	  0.030	 -0.260
 14.468	  0.045	 -0.250
 14.472	  0.025	 -0.240
 14.476	  0.030	 -0.240
 14.480	  0.025	 -0.275
 14.484	  0.045	 -0.250
 14.488	  0.020	 -0.250
 14.492	  0.025	 -0.265
 14.496	  0.015	 -0.260
 14.500	  0.035	 -0.270
 14.504	  0.035	 -0.275
 14.508	  0.035	 -0.275
 14.512	  0.050	 -0.285
 14.516	  0.040	 -0.280
 14.520	  0.040	 -0.285
 14.524	  0.040	 -0.280
 14.528	  0.035	 -0.285
 14.532	  0.065	 -0.275
 14.536	  0.060	 -0.280
 14.540	  0.055	 -0.280
 14.544	  0.050	 -0.295
 14.548	  0.055	 -0.320
 14.552	  0.060	 -0.305
 14.556	  0.070	 -0.305
 14.560	  0.060	 -0.300
 14.564	  0.055	 -0.315
 14.568	  0.055	 -0.300
 14.572	  0.070	 -0.320
 14.576	  0.065	 -0.330
 14.580	  0.085	 -0.320
 14.584	  0.055	 -0.315
 14.588	  0.080	 -0.310
 14.592	  0.085	 -0.340
 14.596	  0.075	 -0.310
 14.600	  0.090	 -0.310
 14.604	  0.085	 -0.310
 14.608	  0.085	 -0.320
 14.612	  0.075	 -0.310
 14.616	  0.085	 -0.320
 14.620	  0.065	 -0.300
 14.624	  0.050	 -0.315
 14.628	  0.050	 -0.300
 14.632	  0.070	 -0.285
 14.636	  0.065	 -0.300
 14.640	  0.065	 -0.315
 14.644	  0.090	 -0.290
 14.648	  0.080	 -0.330
 14.652	  0.070	 -0.310
 14.656	  0.080	 -0.315
 14.660	  0.075	 -0.305
 14.664	  0.085	 -0.315
 14.668	  0.075	 -0.310
 14.672	  0.065	 -0.305
 14.676	  0.055	 -0.310
 14.680	  0.070	 -0.315
 14.684	  0.055	 -0.315
 14.688	  0.055	 -0.320
 14.692	  0.070	 -0.320
 14.696	  0.045	 -0.300
 14.700	  0.040	 -0.310
 14.704	  0.070	 -0.285
 14.708	  0.065	 -0.285
 14.712	  0.070	 -0.280
 14.716	  0.060	 -0.290
 14.720	  0.050	 -0.290
 14.724	  0.070	 -0.290
 14.728	  0.040	 -0.290
 14.732	  0.050	 -0.295
 14.736	  0.055	 -0.285
 14.740	  0.060	 -0.290
 14.744	  0.045	 -0.290
 14.748	  0.050	 -0.295
 14.752	  0.035	 -0.285
 14.756	  0.050	 -0.300
 14.760	  0.065	 -0.300
 14.764	  0.060	 -0.290
 14.768	  0.060	 -0.280
 14.772	  0.065	 -0.260
 14.776	  0.065	 -0.215
 14.780	  0.065	 -0.180
 14.784	  0.065	 -0.155
 14.788	  0.065	 -0.125
 14.792	  0.060	 -0.100
 14.796	  0.070	 -0.135
 14.800	  0.115	 -0.115
 14.804	  0.125	 -0.120
 14.808	  0.140	 -0.120
 14.812	  0.155	 -0.130
 14.816	  0.180	 -0.110
 14.820	  0.180	 -0.110
 14.824	  0.155	 -0.100
 14.828	  0.145	 -0.105
 14.832	  0.110	 -0.090
 14.836	  0.110	 -0.130
 14.840	  0.065	 -0.170
 14.844	  0.055	 -0.230
 14.848	  0.035	 -0.235
 14.852	  0.005	 -0.240
 14.856	  0.015	 -0.230
 14.860	 -0.015	 -0.235
 14.864	 -0.010	 -0.220
 14.868	 -0.030	 -0.215
 14.872	 -0.015	 -0.210
 14.876	 -0.005	 -0.210
 14.880	 -0.020	 -0.230
 14.884	  0.005	 -0.250
 14.888	  0.000	 -0.265
 14.892	  0.000	 -0.260
 14.896	  0.005	 -0.305
 14.900	  0.015	 -0.315
 14.904	  0.025	 -0.320
 14.908	  0.035	 -0.320
 14.912	  0.035	 -0.310
 14.916	  0.060	 -0.315
 14.920	  0.035	 -0.290
 14.924	  0.050	 -0.295
 14.928	  0.060	 -0.295
 14.932	  0.060	 -0.290
 14.936	  0.050	 -0.315
 14.940	  0.045	 -0.300
 14.944	  0.020	 -0.305
 14.948	  0.040	 -0.295
 14.952	  0.040	 -0.290
 14.956	  0.040	 -0.270
 14.960	  0.020	 -0.265
 14.964	  0.035	 -0.235
 14.968	  0.020	 -0.180
 14.972	  0.055	 -0.160
 14.976	  0.045	 -0.135
 14.980	  0.030	 -0.040
 14.984	  0.035	  0.190
 14.988	  0.055	  0.460
 14.992	  0.065	  0.660
 14.996	  0.095	  0.790
 15.000	  0.080	  0.850
 15.004	  0.010	  0.845
 15.008	 -0.010	  0.710
 15.012	 -0.075	  0.445
 15.016	 -0.205	  0.115
 15.020	 -0.470	 -0.090
 15.024	 -0.805	  0.000
 15.028	 -1.135	  0.205
 15.032	 -1.350	  0.195
 15.036	 -1.465	 -0.070
 15.040	 -1.455	 -0.390
 15.044	 -1.235	 -0.610
 15.048	 -0.790	 -0.720
 15.052	 -0.335	 -0.710
 15.056	 -0.090	 -0.640
 15.060	 -0.040	 -0.530
 15.064	 -0.060	 -0.445
 15.068	 -0.080	 -0.430
 15.072	 -0.105	 -0.430
 15.076	 -0.070	 -0.420
 15.080	 -0.025	 -0.440
 15.084	  0.010	 -0.415
 15.088	  0.065	 -0.405
 15.092	  0.095	 -0.415
 15.096	  0.105	 -0.440
 15.100	  0.115	 -0.435
 15.104	  0.110	 -0.425
 15.108	  0.120	 -0.445
 15.112	  0.135	 -0.430
 15.116	  0.135	 -0.420
 15.120	  0.145	 -0.430
 15.124	  0.125	 -0.430
 15.128	  0.135	 -0.425
 15.132	  0.145	 -0.425
 15.136	  0.140	 -0.435
 15.140	  0.160	 -0.430
 15.144	  0.160	 -0.400
 15.148	  0.155	 -0.400
 15.152	  0.150	 -0.420
 15.156	  0.155	 -0.425
 15.160	  0.160	 -0.430
 15.164	  0.150	 -0.440
 15.168	  0.140	 -0.435
 15.172	  0.115	 -0.435
 15.176	  0.140	 -0.460
 15.180	  0.130	 -0.450
 15.184	  0.135	 -0.465
 15.188	  0.130	 -0.465
 15.192	  0.130	 -0.465
 15.196	  0.135	 -0.465
 15.200	  0.125	 -0.465
 15.204	  0.110	 -0.465
 15.208	  0.130	 -0.465
 15.212	  0.115	 -0.475
 15.216	  0.105	 -0.460
 15.220	  0.110	 -0.475
 15.224	  0.085	 -0.480
 15.228	  0.095	 -0.455
 15.232	  0.075	 -0.455
 15.236	  0.105	 -0.440
 15.240	  0.080	 -0.450
 15.244	  0.095	 -0.450
 15.248	  0.095	 -0.445
 15.252	  0.085	 -0.430
 15.256	  0.095	 -0.425
 15.260	  0.110	 -0.430
 15.264	  0.090	 -0.415
 15.268	  0.070	 -0.380
 15.272	  0.070	 -0.365
 15.276	  0.070	 -0.355
 15.280	  0.075	 -0.360
 15.284	  0.065	 -0.325
 15.288	  0.045	 -0.305
 15.292	  0.065	 -0.305
 15.296	  0.025	 -0.295
 15.300	  0.025	 -0.290
 15.304	  0.015	 -0.290
 15.308	 -0.015	 -0.270
 15.312	 -0.020	 -0.270
 15.316	 -0.010	 -0.270
 15.320	 -0.005	 -0.270
 15.324	 -0.005	 -0.280
 15.328	 -0.030	 -0.275
 15.332	 -0.035	 -0.260
 15.336	 -0.010	 -0.265
 15.340	 -0.020	 -0.270
 15.344	 -0.025	 -0.280
 15.348	 -0.020	 -0.285
 15.352	 -0.015	 -0.260
 15.356	 -0.015	 -0.275
 15.360	 -0.005	 -0.285
 15.364	 -0.015	 -0.295
 15.368	  0.000	 -0.305
 15.372	 -0.005	 -0.310
 15.376	 -0.015	 -0.305
 15.380	 -0.010	 -0.325
 15.384	  0.000	 -0.300
 15.388	  0.005	 -0.310
 15.392	 -0.005	 -0.310
 15.396	  0.030	 -0.330
 15.400	  0.030	 -0.325
 15.404	  0.015	 -0.295
 15.408	  0.025	 -0.310
 15.412	  0.025	 -0.320
 15.416	  0.005	 -0.320
 15.420	  0.015	 -0.335
 15.424	  0.005	 -0.320
 15.428	  0.000	 -0.300
 15.432	  0.015	 -0.310
 15.436	  0.030	 -0.305
 15.440	  0.030	 -0.330
 15.444	  0.020	 -0.310
 15.448	  0.010	 -0.325
 15.452	  0.015	 -0.300
 15.456	  0.020	 -0.325
 15.460	  0.040	 -0.320
 15.464	  0.030	 -0.330
 15.468	  0.010	 -0.315
 15.472	  0.025	 -0.305
 15.476	  0.025	 -0.320
 15.480	  0.030	 -0.305
 15.484	  0.035	 -0.325
 15.488	  0.020	 -0.305
 15.492	  0.035	 -0.290
 15.496	  0.025	 -0.310
 15.500	  0.010	 -0.310
 15.504	  0.035	 -0.310
 15.508	  0.025	 -0.330
 15.512	  0.025	 -0.305
 15.516	  0.020	 -0.320
 15.520	  0.000	 -0.310
 15.524	  0.020	 -0.315
 15.528	  0.000	 -0.310
 15.532	  0.005	 -0.290
 15.536	  0.000	 -0.290
 15.540	 -0.035	 -0.305
 15.544	  0.000	 -0.315
 15.548	  0.000	 -0.300
 15.552	  0.005	 -0.300
 15.556	  0.020	 -0.315
 15.560	  0.020	 -0.300
 15.564	 -0.005	 -0.305
 15.568	  0.000	 -0.315
 15.572	 -0.025	 -0.320
 15.576	 -0.015	 -0.295
 15.580	 -0.015	 -0.295
 15.584	 -0.005	 -0.305
 15.588	  0.005	 -0.295
 15.592	 -0.025	 -0.305
 15.596	 -0.015	 -0.290
 15.600	 -0.005	 -0.295
 15.604	 -0.010	 -0.300
 15.608	 -0.010	 -0.290
 15.612	 -0.020	 -0.300
 15.616	 -0.005	 -0.285
 15.620	 -0.010	 -0.290
 15.624	 -0.025	 -0.280
 15.628	 -0.025	 -0.290
 15.632	 -0.015	 -0.265
 15.636	 -0.025	 -0.235
 15.640	 -0.010	 -0.215
 15.644	 -0.015	 -0.180
 15.648	 -0.005	 -0.170
 15.652	  0.010	 -0.140
 15.656	  0.020	 -0.115
 15.660	  0.030	 -0.130
 15.664	  0.060	 -0.140
 15.668	  0.080	 -0.145
 15.672	  0.060	 -0.130
 15.676	  0.110	 -0.145
 15.680	  0.100	 -0.135
 15.684	  0.090	 -0.100
 15.688	  0.075	 -0.105
 15.692	  0.060	 -0.080
 15.696	  0.035	 -0.090
 15.700	  0.010	 -0.115
 15.704	  0.020	 -0.180
 15.708	  0.015	 -0.200
 15.712	 -0.015	 -0.220
 15.716	 -0.015	 -0.225
 15.720	 -0.015	 -0.195
 15.724	 -0.035	 -0.190
 15.728	 -0.050	 -0.185
 15.732	 -0.060	 -0.185
 15.736	 -0.055	 -0.190
 15.740	 -0.055	 -0.195
 15.744	 -0.080	 -0.205
 15.748	 -0.060	 -0.205
 15.752	 -0.025	 -0.225
 15.756	 -0.035	 -0.245
 15.760	 -0.040	 -0.275
 15.764	 -0.045	 -0.275
 15.768	 -0.015	 -0.265
 15.772	  0.005	 -0.275
 15.776	  0.020	 -0.295
 15.780	  0.035	 -0.265
 15.784	  0.015	 -0.265
 15.788	  0.000	 -0.260
 15.792	  0.030	 -0.260
 15.796	  0.025	 -0.265
 15.800	  0.010	 -0.240
 15.804	  0.005	 -0.265
 15.808	  0.000	 -0.240
 15.812	  0.010	 -0.250
 15.816	  0.005	 -0.250
 15.820	  0.000	 -0.225
 15.824	 -0.010	 -0.215
 15.828	 -0.015	 -0.210
 15.832	  0.000	 -0.185
 15.836	  0.000	 -0.155
 15.840	  0.000	 -0.125
 15.844	 -0.005	 -0.105
 15.848	 -0.020	  0.020
 15.852	 -0.010	  0.235
 15.856	  0.015	  0.500
 15.860	  0.050	  0.725
 15.864	  0.050	  0.885
 15.868	  0.000	  0.995
 15.872	 -0.055	  1.010
 15.876	 -0.080	  0.930
 15.880	 -0.120	  0.725
 15.884	 -0.235	  0.400
 15.888	 -0.465	  0.150
 15.892	 -0.745	  0.160
 15.896	 -1.040	  0.245
 15.900	 -1.210	  0.135
 15.904	 -1.280	 -0.125
 15.908	 -1.250	 -0.405
 15.912	 -1.010	 -0.585
 15.916	 -0.640	 -0.690
 15.920	 -0.305	 -0.655
 15.924	 -0.145	 -0.560
 15.928	 -0.120	 -0.460
 15.932	 -0.155	 -0.395
 15.936	 -0.145	 -0.375
 15.940	 -0.160	 -0.390
 15.944	 -0.140	 -0.380
 15.948	 -0.095	 -0.375
 15.952	 -0.030	 -0.360
 15.956	  0.005	 -0.385
 15.960	  0.040	 -0.375
 15.964	  0.040	 -0.390
 15.968	  0.050	 -0.380
 15.972	  0.050	 -0.400
 15.976	  0.065	 -0.360
 15.980	  0.085	 -0.375
 15.984	  0.070	 -0.375
 15.988	  0.060	 -0.375
 15.992	  0.065	 -0.380
 15.996	  0.090	 -0.380
 16.000	  0.075	 -0.375
 16.004	  0.075	 -0.365
 16.008	  0.085	 -0.375
 16.012	  0.075	 -0.360
 16.016	  0.075	 -0.360
 16.020	  0.065	 -0.385
 16.024	  0.065	 -0.375
 16.028	  0.090	 -0.370
 16.032	  0.080	 -0.375
 16.036	  0.085	 -0.395
 16.040	  0.065	 -0.400
 16.044	  0.070	 -0.410
 16.048	  0.070	 -0.400
 16.052	  0.090	 -0.395
 16.056	  0.070	 -0.405
 16.060	  0.065	 -0.415
 16.064	  0.060	 -0.415
 16.068	  0.070	 -0.420
 16.072	  0.080	 -0.420
 16.076	  0.065	 -0.405
 16.080	  0.060	 -0.415
 16.084	  0.065	 -0.420
 16.088	  0.065	 -0.410
 16.092	  0.070	 -0.415
 16.096	  0.075	 -0.415
 16.100	  0.065	 -0.420
 16.104	  0.065	 -0.410
 16.108	  0.055	 -0.415
 16.112	  0.055	 -0.430
 16.116	  0.035	 -0.400
 16.120	  0.040	 -0.405
 16.124	  0.040	 -0.410
 16.128	  0.055	 -0.405
 16.132	  0.025	 -0.385
 16.136	  0.020	 -0.350
 16.140	  0.025	 -0.350
 16.144	  0.015	 -0.295
 16.148	  0.015	 -0.305
 16.152	  0.015	 -0.285
 16.156	  0.010	 -0.265
 16.160	  0.015	 -0.240
 16.164	  0.005	 -0.240
 16.168	 -0.020	 -0.235
 16.172	 -0.010	 -0.230
 16.176	 -0.010	 -0.210
 16.180	 -0.035	 -0.210
 16.184	 -0.035	 -0.195
 16.188	 -0.025	 -0.210
 16.192	 -0.035	 -0.180
 16.196	 -0.025	 -0.195
 16.200	 -0.045	 -0.190
 16.204	 -0.020	 -0.210
 16.208	 -0.025	 -0.205
 16.212	 -0.005	 -0.205
 16.216	 -0.040	 -0.200
 16.220	 -0.010	 -0.190
 16.224	 -0.025	 -0.210
 16.228	 -0.030	 -0.210
 16.232	  0.000	 -0.215
 16.236	 -0.015	 -0.220
 16.240	 -0.030	 -0.235
 16.244	  0.000	 -0.225
 16.248	 -0.020	 -0.240
 16.252	 -0.015	 -0.220
 16.256	 -0.015	 -0.245
 16.260	 -0.015	 -0.245
 16.264	  0.010	 -0.240
 16.268	 -0.005	 -0.250
 16.272	 -0.005	 -0.260
 16.276	  0.000	 -0.240
 16.280	  0.000	 -0.240
 16.284	  0.000	 -0.245
 16.288	  0.000	 -0.240
 16.292	 -0.010	 -0.255
 16.296	  0.005	 -0.250
 16.300	  0.000	 -0.250
 16.304	 -0.005	 -0.275
 16.308	  0.005	 -0.265
 16.312	  0.015	 -0.250
 16.316	  0.015	 -0.260
 16.320	 -0.015	 -0.270
 16.324	  0.000	 -0.275
 16.328	 -0.010	 -0.260
 16.332	 -0.015	 -0.260
 16.336	 -0.010	 -0.270
 16.340	 -0.015	 -0.255
 16.344	 -0.015	 -0.280
 16.348	  0.000	 -0.265
 16.352	 -0.030	 -0.250
 16.356	  0.000	 -0.265
 16.360	 -0.005	 -0.270
 16.364	 -0.025	 -0.280
 16.368	  0.000	 -0.260
 16.372	 -0.025	 -0.270
 16.376	 -0.015	 -0.275
 16.380	 -0.035	 -0.275
 16.384	 -0.040	 -0.280
 16.388	 -0.020	 -0.280
 16.392	 -0.035	 -0.280
 16.396	 -0.015	 -0.285
 16.400	  0.000	 -0.280
 16.404	 -0.015	 -0.265
 16.408	 -0.020	 -0.265
 16.412	 -0.030	 -0.270
 16.416	 -0.005	 -0.265
 16.420	 -0.010	 -0.265
 16.424	 -0.020	 -0.275
 16.428	 -0.030	 -0.300
 16.432	 -0.015	 -0.275
 16.436	 -0.040	 -0.270
 16.440	 -0.025	 -0.265
 16.444	 -0.025	 -0.265
 16.448	 -0.025	 -0.260
 16.452	 -0.020	 -0.260
 16.456	 -0.020	 -0.265
 16.460	 -0.050	 -0.275
 16.464	 -0.015	 -0.260
 16.468	 -0.035	 -0.260
 16.472	 -0.020	 -0.260
 16.476	 -0.025	 -0.265
 16.480	 -0.010	 -0.260
 16.484	 -0.035	 -0.250
 16.488	 -0.010	 -0.250
 16.492	 -0.030	 -0.230
 16.496	 -0.020	 -0.185
 16.500	 -0.020	 -0.170
 16.504	 -0.015	 -0.120
 16.508	 -0.020	 -0.110
 16.512	 -0.010	 -0.095
 16.516	  0.025	 -0.095
 16.520	  0.040	 -0.080
 16.524	  0.055	 -0.095
 16.528	  0.065	 -0.105
 16.532	  0.080	 -0.100
 16.536	  0.085	 -0.095
 16.540	  0.115	 -0.090
 16.544	  0.095	 -0.100
 16.548	  0.055	 -0.090
 16.552	  0.035	 -0.105
 16.556	  0.035	 -0.160
 16.560	  0.025	 -0.200
 16.564	 -0.005	 -0.220
 16.568	 -0.030	 -0.210
 16.572	 -0.045	 -0.205
 16.576	 -0.040	 -0.200
 16.580	 -0.075	 -0.190
 16.584	 -0.065	 -0.195
 16.588	 -0.070	 -0.225
 16.592	 -0.050	 -0.215
 16.596	 -0.065	 -0.230
 16.600	 -0.040	 -0.230
 16.604	 -0.025	 -0.240
 16.608	 -0.020	 -0.285
 16.612	 -0.045	 -0.290
 16.616	 -0.030	 -0.300
 16.620	 -0.020	 -0.280
 16.624	  0.005	 -0.290
 16.628	  0.025	 -0.295
 16.632	  0.035	 -0.285
 16.636	  0.005	 -0.285
 16.640	  0.015	 -0.295
 16.644	  0.030	 -0.300
 16.648	  0.010	 -0.275
 16.652	  0.015	 -0.295
 16.656	  0.005	 -0.270
 16.660	  0.015	 -0.280
 16.664	  0.010	 -0.255
 16.668	  0.025	 -0.255
 16.672	  0.000	 -0.250
 16.676	  0.030	 -0.240
 16.680	  0.030	 -0.205
 16.684	  0.025	 -0.160
 16.688	  0.035	 -0.155
 16.692	  0.030	 -0.115
 16.696	  0.035	  0.035
 16.700	  0.045	  0.300
 16.704	  0.055	  0.575
 16.708	  0.075	  0.805
 16.712	  0.100	  0.950
 16.716	  0.040	  1.080
 16.720	  0.000	  1.055
 16.724	 -0.030	  0.895
 16.728	 -0.090	  0.615
 16.732	 -0.230	  0.230
 16.736	 -0.450	  0.025
 16.740	 -0.760	  0.095
 16.744	 -1.025	  0.185
 16.748	 -1.205	  0.015
 16.752	 -1.315	 -0.255
 16.756	 -1.230	 -0.510
 16.760	 -0.960	 -0.660
 16.764	 -0.545	 -0.705
 16.768	 -0.215	 -0.660
 16.772	 -0.060	 -0.565
 16.776	 -0.050	 -0.475
 16.780	 -0.060	 -0.430
 16.784	 -0.070	 -0.425
 16.788	 -0.070	 -0.435
 16.792	 -0.050	 -0.430
 16.796	  0.020	 -0.425
 16.800	  0.055	 -0.440
 16.804	  0.105	 -0.440
 16.808	  0.125	 -0.440
 16.812	  0.140	 -0.435
 16.816	  0.145	 -0.425
 16.820	  0.150	 -0.420
 16.824	  0.135	 -0.415
 16.828	  0.140	 -0.425
 16.832	  0.140	 -0.405
 16.836	  0.165	 -0.430
 16.840	  0.170	 -0.420
 16.844	  0.170	 -0.410
 16.848	  0.175	 -0.410
 16.852	  0.140	 -0.420
 16.856	  0.170	 -0.420
 16.860	  0.130	 -0.415
 16.864	  0.160	 -0.425
 16.868	  0.175	 -0.420
 16.872	  0.155	 -0.395
 16.876	  0.150	 -0.420
 16.880	  0.180	 -0.425
 16.884	  0.145	 -0.435
 16.888	  0.155	 -0.430
 16.892	  0.150	 -0.430
 16.896	  0.140	 -0.410
 16.900	  0.155	 -0.440
 16.904	  0.140	 -0.445
 16.908	  0.130	 -0.440
 16.912	  0.140	 -0.470
 16.916	  0.135	 -0.445
 16.920	  0.125	 -0.465
 16.924	  0.125	 -0.485
 16.928	  0.130	 -0.450
 16.932	  0.135	 -0.455
 16.936	  0.120	 -0.465
 16.940	  0.110	 -0.470
 16.944	  0.125	 -0.465
 16.948	  0.115	 -0.455
 16.952	  0.125	 -0.450
 16.956	  0.120	 -0.445
 16.960	  0.115	 -0.440
 16.964	  0.110	 -0.425
 16.968	  0.105	 -0.400
 16.972	  0.095	 -0.415
 16.976	  0.085	 -0.395
 16.980	  0.095	 -0.380
 16.984	  0.105	 -0.350
 16.988	  0.100	 -0.330
 16.992	  0.095	 -0.310
 16.996	  0.080	 -0.305
 17.000	  0.060	 -0.275
 17.004	  0.060	 -0.280
 17.008	  0.030	 -0.265
 17.012	  0.055	 -0.260
 17.016	  0.040	 -0.260
 17.020	  0.040	 -0.225
 17.024	  0.035	 -0.210
 17.028	  0.035	 -0.230
 17.032	  0.030	 -0.215
 17.036	  0.025	 -0.235
 17.040	  0.035	 -0.220
 17.044	  0.020	 -0.235
 17.048	  0.035	 -0.250
 17.052	  0.015	 -0.240
 17.056	  0.040	 -0.240
 17.060	  0.025	 -0.235
 17.064	  0.040	 -0.250
 17.068	  0.030	 -0.260
 17.072	  0.050	 -0.250
 17.076	  0.055	 -0.265
 17.080	  0.045	 -0.275
 17.084	  0.055	 -0.255
 17.088	  0.055	 -0.275
 17.092	  0.055	 -0.270
 17.096	  0.070	 -0.265
 17.100	  0.065	 -0.260
 17.104	  0.065	 -0.280
 17.108	  0.070	 -0.285
 17.112	  0.075	 -0.275
 17.116	  0.070	 -0.275
 17.120	  0.065	 -0.265
 17.124	  0.075	 -0.290
 17.128	  0.080	 -0.290
 17.132	  0.080	 -0.280
 17.136	  0.075	 -0.295
 17.140	  0.095	 -0.295
 17.144	  0.070	 -0.295
 17.148	  0.080	 -0.290
 17.152	  0.080	 -0.305
 17.156	  0.075	 -0.310
 17.160	  0.075	 -0.315
 17.164	  0.085	 -0.315
 17.168	  0.080	 -0.305
 17.172	  0.075	 -0.310
 17.176	  0.075	 -0.300
 17.180	  0.075	 -0.295
 17.184	  0.065	 -0.305
 17.188	  0.050	 -0.325
 17.192	  0.060	 -0.320
 17.196	  0.080	 -0.310
 17.200	  0.070	 -0.310
 17.204	  0.050	 -0.325
 17.208	  0.055	 -0.315
 17.212	  0.055	 -0.315
 17.216	  0.045	 -0.320
 17.220	  0.025	 -0.310
 17.224	  0.055	 -0.315
 17.228	  0.040	 -0.310
 17.232	  0.035	 -0.335
 17.236	  0.055	 -0.315
 17.240	  0.005	 -0.320
 17.244	  0.035	 -0.330
 17.248	  0.040	 -0.305
 17.252	  0.025	 -0.315
 17.256	  0.025	 -0.325
 17.260	  0.025	 -0.325
 17.264	  0.030	 -0.335
 17.268	  0.030	 -0.330
 17.272	  0.045	 -0.325
 17.276	  0.040	 -0.325
 17.280	  0.035	 -0.320
 17.284	  0.050	 -0.315
 17.288	  0.040	 -0.320
 17.292	  0.035	 -0.310
 17.296	  0.015	 -0.330
 17.300	  0.025	 -0.340
 17.304	  0.035	 -0.340
 17.308	  0.030	 -0.335
 17.312	  0.025	 -0.340
 17.316	  0.000	 -0.330
 17.320	  0.020	 -0.335
 17.324	  0.025	 -0.325
 17.328	  0.010	 -0.330
 17.332	  0.020	 -0.305
 17.336	  0.020	 -0.290
 17.340	  0.030	 -0.250
 17.344	  0.030	 -0.215
 17.348	  0.025	 -0.190
 17.352	  0.030	 -0.175
 17.356	  0.055	 -0.150
 17.360	  0.065	 -0.140
 17.364	  0.075	 -0.150
 17.368	  0.095	 -0.135
 17.372	  0.125	 -0.140
 17.376	  0.145	 -0.170
 17.380	  0.145	 -0.170
 17.384	  0.125	 -0.130
 17.388	  0.130	 -0.140
 17.392	  0.110	 -0.145
 17.396	  0.095	 -0.140
 17.400	  0.075	 -0.200
 17.404	  0.040	 -0.240
 17.408	  0.015	 -0.285
 17.412	  0.000	 -0.300
 17.416	 -0.010	 -0.275
 17.420	 -0.030	 -0.290
 17.424	 -0.030	 -0.255
 17.428	 -0.030	 -0.260
 17.432	 -0.050	 -0.245
 17.436	 -0.040	 -0.250
 17.440	 -0.025	 -0.275
 17.444	 -0.045	 -0.275
 17.448	 -0.015	 -0.300
 17.452	  0.010	 -0.320
 17.456	  0.000	 -0.365
 17.460	  0.000	 -0.365
 17.464	  0.010	 -0.350
 17.468	  0.005	 -0.370
 17.472	  0.030	 -0.360
 17.476	  0.070	 -0.385
 17.480	  0.050	 -0.350
 17.484	  0.050	 -0.355
 17.488	  0.055	 -0.365
 17.492	  0.045	 -0.340
 17.496	  0.060	 -0.345
 17.500	  0.045	 -0.345
 17.504	  0.050	 -0.340
 17.508	  0.055	 -0.350
 17.512	  0.035	 -0.345
 17.516	  0.035	 -0.340
 17.520	  0.045	 -0.335
 17.524	  0.040	 -0.315
 17.528	  0.070	 -0.290
 17.532	  0.040	 -0.245
 17.536	  0.040	 -0.215
 17.540	  0.040	 -0.180
 17.544	  0.040	  0.000
 17.548	  0.050	  0.270
 17.552	  0.070	  0.555
 17.556	  0.095	  0.755
 17.560	  0.100	  0.890
 17.564	  0.070	  0.940
 17.568	  0.010	  0.890
 17.572	 -0.035	  0.705
 17.576	 -0.095	  0.380
 17.580	 -0.290	 -0.030
 17.584	 -0.570	 -0.130
 17.588	 -0.905	  0.035
 17.592	 -1.205	  0.175
 17.596	 -1.430	  0.020
 17.600	 -1.475	 -0.270
 17.604	 -1.395	 -0.545
 17.608	 -1.075	 -0.710
 17.612	 -0.620	 -0.780
 17.616	 -0.220	 -0.750
 17.620	 -0.070	 -0.670
 17.624	 -0.060	 -0.545
 17.628	 -0.090	 -0.485
 17.632	 -0.075	 -0.500
 17.636	 -0.095	 -0.500
 17.640	 -0.055	 -0.480
 17.644	 -0.020	 -0.505
 17.648	  0.045	 -0.485
 17.652	  0.085	 -0.495
 17.656	  0.110	 -0.480
 17.660	  0.145	 -0.480
 17.664	  0.155	 -0.475
 17.668	  0.145	 -0.495
 17.672	  0.140	 -0.470
 17.676	  0.160	 -0.470
 17.680	  0.160	 -0.460
 17.684	  0.155	 -0.450
 17.688	  0.170	 -0.465
 17.692	  0.180	 -0.465
 17.696	  0.185	 -0.470
 17.700	  0.165	 -0.480
 17.704	  0.175	 -0.485
 17.708	  0.190	 -0.485
 17.712	  0.170	 -0.455
 17.716	  0.180	 -0.465
 17.720	  0.180	 -0.480
 17.724	  0.185	 -0.460
 17.728	  0.190	 -0.465
 17.732	  0.195	 -0.475
 17.736	  0.185	 -0.465
 17.740	  0.170	 -0.465
 17.744	  0.190	 -0.470
 17.748	  0.180	 -0.480
 17.752	  0.185	 -0.485
 17.756	  0.195	 -0.495
 17.760	  0.185	 -0.470
 17.764	  0.185	 -0.495
 17.768	  0.180	 -0.495
 17.772	  0.190	 -0.485
 17.776	  0.210	 -0.480
 17.780	  0.190	 -0.490
 17.784	  0.180	 -0.490
 17.788	  0.170	 -0.475
 17.792	  0.180	 -0.490
 17.796	  0.175	 -0.480
 17.800	  0.185	 -0.465
 17.804	  0.185	 -0.470
 17.808	  0.160	 -0.465
 17.812	  0.170	 -0.475
 17.816	  0.160	 -0.450
 17.820	  0.165	 -0.445
 17.824	  0.155	 -0.405
 17.828	  0.155	 -0.415
 17.832	  0.175	 -0.390
 17.836	  0.170	 -0.375
 17.840	  0.130	 -0.340
 17.844	  0.145	 -0.345
 17.848	  0.115	 -0.325
 17.852	  0.100	 -0.315
 17.856	  0.120	 -0.305
 17.860	  0.095	 -0.300
 17.864	  0.070	 -0.285
 17.868	  0.080	 -0.275
 17.872	  0.090	 -0.270
 17.876	  0.070	 -0.270
 17.880	  0.070	 -0.260
 17.884	  0.050	 -0.275
 17.888	  0.050	 -0.285
 17.892	  0.065	 -0.280
 17.896	  0.070	 -0.295
 17.900	  0.065	 -0.305
 17.904	  0.050	 -0.295
 17.908	  0.055	 -0.290
 17.912	  0.035	 -0.295
 17.916	  0.045	 -0.300
 17.920	  0.055	 -0.305
 17.924	  0.080	 -0.305
 17.928	  0.070	 -0.315
 17.932	  0.060	 -0.310
 17.936	  0.075	 -0.320
 17.940	  0.080	 -0.325
 17.944	  0.070	 -0.315
 17.948	  0.055	 -0.320
 17.952	  0.080	 -0.325
 17.956	  0.065	 -0.335
 17.960	  0.055	 -0.320
 17.964	  0.080	 -0.310
 17.968	  0.090	 -0.330
 17.972	  0.060	 -0.330
 17.976	  0.100	 -0.350
 17.980	  0.080	 -0.360
 17.984	  0.095	 -0.330
 17.988	  0.100	 -0.325
 17.992	  0.095	 -0.340
 17.996	  0.100	 -0.340
 18.000	  0.095	 -0.335
 18.004	  0.085	 -0.345
 18.008	  0.095	 -0.345
 18.012	  0.105	 -0.365
 18.016	  0.090	 -0.375
 18.020	  0.070	 -0.345
 18.024	  0.085	 -0.330
 18.028	  0.080	 -0.340
 18.032	  0.090	 -0.355
 18.036	  0.075	 -0.360
 18.040	  0.075	 -0.365
 18.044	  0.075	 -0.365
 18.048	  0.085	 -0.365
 18.052	  0.070	 -0.340
 18.056	  0.055	 -0.325
 18.060	  0.060	 -0.330
 18.064	  0.050	 -0.355
 18.068	  0.070	 -0.345
 18.072	  0.055	 -0.355
 18.076	  0.050	 -0.345
 18.080	  0.050	 -0.350
 18.084	  0.050	 -0.340
 18.088	  0.060	 -0.345
 18.092	  0.055	 -0.360
 18.096	  0.035	 -0.370
 18.100	  0.050	 -0.365
 18.104	  0.040	 -0.345
 18.108	  0.030	 -0.330
 18.112	  0.025	 -0.340
 18.116	  0.030	 -0.365
 18.120	  0.035	 -0.355
 18.124	  0.020	 -0.355
 18.128	  0.045	 -0.355
 18.132	  0.030	 -0.355
 18.136	  0.025	 -0.330
 18.140	  0.030	 -0.345
 18.144	  0.010	 -0.365
 18.148	  0.030	 -0.350
 18.152	  0.030	 -0.350
 18.156	  0.030	 -0.370
 18.160	  0.020	 -0.360
 18.164	  0.015	 -0.350
 18.168	  0.025	 -0.355
 18.172	  0.020	 -0.360
 18.176	  0.025	 -0.355
 18.180	  0.010	 -0.355
 18.184	  0.025	 -0.365
 18.188	  0.045	 -0.350
 18.192	  0.025	 -0.345
 18.196	  0.005	 -0.320
 18.200	  0.040	 -0.300
 18.204	  0.010	 -0.285
 18.208	  0.000	 -0.255
 18.212	  0.025	 -0.225
 18.216	  0.025	 -0.195
 18.220	  0.020	 -0.195
 18.224	  0.025	 -0.200
 18.228	  0.040	 -0.210
 18.232	  0.065	 -0.205
 18.236	  0.080	 -0.205
 18.240	  0.095	 -0.200
 18.244	  0.080	 -0.195
 18.248	  0.090	 -0.175
 18.252	  0.080	 -0.185
 18.256	  0.060	 -0.190
 18.260	  0.050	 -0.205
 18.264	  0.030	 -0.255
 18.268	  0.015	 -0.300
 18.272	 -0.035	 -0.315
 18.276	 -0.055	 -0.320
 18.280	 -0.065	 -0.305
 18.284	 -0.060	 -0.300
 18.288	 -0.060	 -0.280
 18.292	 -0.085	 -0.290
 18.296	 -0.090	 -0.300
 18.300	 -0.095	 -0.290
 18.304	 -0.085	 -0.320
 18.308	 -0.055	 -0.335
 18.312	 -0.070	 -0.345
 18.316	 -0.045	 -0.385
 18.320	 -0.050	 -0.390
 18.324	 -0.060	 -0.370
 18.328	 -0.050	 -0.400
 18.332	 -0.020	 -0.390
 18.336	  0.005	 -0.390
 18.340	  0.005	 -0.400
 18.344	 -0.005	 -0.375
 18.348	 -0.010	 -0.375
 18.352	 -0.010	 -0.375
 18.356	 -0.010	 -0.370
 18.360	 -0.015	 -0.370
 18.364	 -0.005	 -0.375
 18.368	  0.000	 -0.380
 18.372	 -0.025	 -0.365
 18.376	 -0.030	 -0.360
 18.380	 -0.035	 -0.365
 18.384	 -0.025	 -0.330
 18.388	 -0.030	 -0.275
 18.392	 -0.030	 -0.260
 18.396	 -0.030	 -0.245
 18.400	 -0.025	 -0.175
 18.404	 -0.020	 -0.005
 18.408	 -0.005	  0.245
 18.412	  0.035	  0.485
 18.416	  0.035	  0.665
 18.420	  0.015	  0.795
 18.424	 -0.035	  0.815
 18.428	 -0.080	  0.785
 18.432	 -0.130	  0.595
 18.436	 -0.205	  0.275
 18.440	 -0.420	 -0.040
 18.444	 -0.730	 -0.040
 18.448	 -1.070	  0.105
 18.452	 -1.340	  0.105
 18.456	 -1.470	 -0.125
 18.460	 -1.480	 -0.440
 18.464	 -1.320	 -0.670
 18.468	 -0.915	 -0.780
 18.472	 -0.470	 -0.790
 18.476	 -0.185	 -0.705
 18.480	 -0.125	 -0.610
 18.484	 -0.125	 -0.515
 18.488	 -0.125	 -0.500
 18.492	 -0.185	 -0.510
 18.496	 -0.145	 -0.515
 18.500	 -0.115	 -0.520
 18.504	 -0.050	 -0.535
 18.508	  0.005	 -0.530
 18.512	  0.040	 -0.515
 18.516	  0.050	 -0.500
 18.520	  0.070	 -0.505
 18.524	  0.060	 -0.520
 18.528	  0.085	 -0.530
 18.532	  0.065	 -0.540
 18.536	  0.090	 -0.500
 18.540	  0.070	 -0.515
 18.544	  0.080	 -0.500
 18.548	  0.085	 -0.505
 18.552	  0.090	 -0.510
 18.556	  0.090	 -0.495
 18.560	  0.085	 -0.515
 18.564	  0.075	 -0.500
 18.568	  0.085	 -0.495
 18.572	  0.095	 -0.520
 18.576	  0.090	 -0.540
 18.580	  0.090	 -0.525
 18.584	  0.075	 -0.545
 18.588	  0.070	 -0.525
 18.592	  0.080	 -0.515
 18.596	  0.055	 -0.520
 18.600	  0.060	 -0.530
 18.604	  0.070	 -0.510
 18.608	  0.075	 -0.530
 18.612	  0.055	 -0.540
 18.616	  0.070	 -0.545
 18.620	  0.065	 -0.545
 18.624	  0.070	 -0.545
 18.628	  0.065	 -0.550
 18.632	  0.080	 -0.545
 18.636	  0.080	 -0.530
 18.640	  0.075	 -0.555
 18.644	  0.070	 -0.540
 18.648	  0.065	 -0.560
 18.652	  0.055	 -0.550
 18.656	  0.040	 -0.540
 18.660	  0.055	 -0.540
 18.664	  0.050	 -0.540
 18.668	  0.050	 -0.525
 18.672	  0.040	 -0.525
 18.676	  0.030	 -0.510
 18.680	  0.025	 -0.465
 18.684	  0.025	 -0.470
 18.688	  0.040	 -0.445
 18.692	  0.030	 -0.430
 18.696	  0.025	 -0.400
 18.700	  0.025	 -0.385
 18.704	 -0.015	 -0.375
 18.708	 -0.010	 -0.375
 18.712	 -0.010	 -0.365
 18.716	 -0.005	 -0.340
 18.720	 -0.040	 -0.330
 18.724	 -0.010	 -0.315
 18.728	  0.005	 -0.335
 18.732	 -0.025	 -0.325
 18.736	 -0.025	 -0.290
 18.740	 -0.030	 -0.310
 18.744	 -0.040	 -0.305
 18.748	 -0.015	 -0.320
 18.752	 -0.020	 -0.315
 18.756	 -0.020	 -0.320
 18.760	 -0.025	 -0.325
 18.764	 -0.025	 -0.300
 18.768	 -0.020	 -0.310
 18.772	 -0.025	 -0.340
 18.776	 -0.025	 -0.340
 18.780	 -0.010	 -0.325
 18.784	 -0.005	 -0.340
 18.788	 -0.030	 -0.345
 18.792	  0.000	 -0.335
 18.796	 -0.015	 -0.330
 18.800	 -0.015	 -0.340
 18.804	 -0.010	 -0.320
 18.808	 -0.015	 -0.330
 18.812	  0.010	 -0.340
 18.816	  0.005	 -0.340
 18.820	  0.020	 -0.345
 18.824	  0.005	 -0.355
 18.828	  0.005	 -0.360
 18.832	  0.000	 -0.355
 18.836	  0.015	 -0.335
 18.840	  0.000	 -0.345
 18.844	  0.025	 -0.355
 18.848	  0.025	 -0.360
 18.852	  0.015	 -0.340
 18.856	  0.015	 -0.350
 18.860	  0.015	 -0.350
 18.864	  0.015	 -0.340
 18.868	  0.000	 -0.340
 18.872	  0.025	 -0.350
 18.876	  0.005	 -0.350
 18.880	  0.020	 -0.350
 18.884	  0.000	 -0.355
 18.888	  0.010	 -0.350
 18.892	  0.005	 -0.360
 18.896	  0.000	 -0.355
 18.900	  0.000	 -0.340
 18.904	  0.000	 -0.320
 18.908	  0.010	 -0.345
 18.912	  0.000	 -0.350
 18.916	 -0.005	 -0.340
 18.920	 -0.010	 -0.330
 18.924	 -0.020	 -0.345
 18.928	 -0.025	 -0.360
 18.932	 -0.045	 -0.340
 18.936	 -0.030	 -0.360
 18.940	 -0.010	 -0.335
 18.944	 -0.020	 -0.355
 18.948	 -0.015	 -0.370
 18.952	 -0.025	 -0.360
 18.956	 -0.025	 -0.370
 18.960	 -0.035	 -0.355
 18.964	 -0.035	 -0.360
 18.968	 -0.020	 -0.355
 18.972	 -0.025	 -0.350
 18.976	 -0.025	 -0.340
 18.980	 -0.015	 -0.340
 18.984	 -0.055	 -0.355
 18.988	 -0.045	 -0.345
 18.992	 -0.025	 -0.340
 18.996	 -0.050	 -0.345
 19.000	 -0.030	 -0.360
 19.004	 -0.030	 -0.345
 19.008	 -0.030	 -0.330
 19.012	 -0.035	 -0.335
 19.016	 -0.030	 -0.350
 19.020	 -0.060	 -0.355
 19.024	 -0.050	 -0.360
 19.028	 -0.040	 -0.340
 19.032	 -0.050	 -0.340
 19.036	 -0.040	 -0.325
 19.040	 -0.040	 -0.305
 19.044	 -0.050	 -0.290
 19.048	 -0.035	 -0.235
 19.052	 -0.030	 -0.200
 19.056	 -0.025	 -0.175
 19.060	 -0.025	 -0.180
 19.064	  0.000	 -0.165
 19.068	  0.020	 -0.155
 19.072	  0.035	 -0.155
 19.076	  0.040	 -0.175
 19.080	  0.030	 -0.180
 19.084	  0.065	 -0.175
 19.088	  0.060	 -0.165
 19.092	  0.040	 -0.170
 19.096	  0.060	 -0.145
 19.100	  0.030	 -0.175
 19.104	 -0.005	 -0.210
 19.108	  0.010	 -0.265
 19.112	 -0.020	 -0.300
 19.116	 -0.050	 -0.260
 19.120	 -0.070	 -0.265
 19.124	 -0.080	 -0.280
 19.128	 -0.075	 -0.280
 19.132	 -0.130	 -0.315
 19.136	 -0.100	 -0.300
 19.140	 -0.120	 -0.295
 19.144	 -0.100	 -0.305
 19.148	 -0.105	 -0.295
 19.152	 -0.085	 -0.310
 19.156	 -0.090	 -0.320
 19.160	 -0.070	 -0.365
 19.164	 -0.080	 -0.365
 19.168	 -0.055	 -0.365
 19.172	 -0.045	 -0.365
 19.176	 -0.030	 -0.370
 19.180	 -0.015	 -0.370
 19.184	 -0.040	 -0.375
 19.188	 -0.055	 -0.370
 19.192	 -0.075	 -0.360
 19.196	 -0.030	 -0.380
 19.200	 -0.025	 -0.385
 19.204	 -0.065	 -0.380
 19.208	 -0.060	 -0.370
 19.212	 -0.055	 -0.365
 19.216	 -0.055	 -0.365
 19.220	 -0.065	 -0.360
 19.224	 -0.060	 -0.340
 19.228	 -0.070	 -0.320
 19.232	 -0.080	 -0.275
 19.236	 -0.050	 -0.275
 19.240	 -0.060	 -0.255
 19.244	 -0.065	 -0.155
 19.248	 -0.050	  0.050
 19.252	 -0.030	  0.305
 19.256	 -0.015	  0.555
 19.260	  0.000	  0.765
 19.264	 -0.035	  0.915
 19.268	 -0.080	  0.970
 19.272	 -0.110	  0.905
 19.276	 -0.155	  0.710
 19.280	 -0.275	  0.365
 19.284	 -0.435	  0.070
 19.288	 -0.760	  0.045
 19.292	 -1.030	  0.085
 19.296	 -1.265	 -0.010
 19.300	 -1.335	 -0.285
 19.304	 -1.335	 -0.555
 19.308	 -1.125	 -0.735
 19.312	 -0.745	 -0.820
 19.316	 -0.405	 -0.810
 19.320	 -0.225	 -0.720
 19.324	 -0.200	 -0.615
 19.328	 -0.210	 -0.560
 19.332	 -0.205	 -0.550
 19.336	 -0.210	 -0.545
 19.340	 -0.185	 -0.545
 19.344	 -0.160	 -0.550
 19.348	 -0.100	 -0.550
 19.352	 -0.025	 -0.555
 19.356	  0.005	 -0.545
 19.360	  0.000	 -0.555
 19.364	  0.015	 -0.540
 19.368	  0.025	 -0.540
 19.372	  0.025	 -0.550
 19.376	  0.035	 -0.560
 19.380	  0.020	 -0.560
 19.384	  0.025	 -0.565
 19.388	  0.050	 -0.560
 19.392	  0.045	 -0.570
 19.396	  0.050	 -0.560
 19.400	  0.050	 -0.545
 19.404	  0.055	 -0.560
 19.408	  0.045	 -0.575
 19.412	  0.060	 -0.570
 19.416	  0.040	 -0.560
 19.420	  0.040	 -0.570
 19.424	  0.040	 -0.550
 19.428	  0.050	 -0.565
 19.432	  0.055	 -0.585
 19.436	  0.045	 -0.590
 19.440	  0.020	 -0.580
 19.444	  0.045	 -0.595
 19.448	  0.045	 -0.595
 19.452	  0.050	 -0.600
 19.456	  0.045	 -0.595
 19.460	  0.050	 -0.620
 19.464	  0.050	 -0.610
 19.468	  0.050	 -0.605
 19.472	  0.020	 -0.620
 19.476	  0.035	 -0.605
 19.480	  0.035	 -0.605
 19.484	  0.030	 -0.625
 19.488	  0.015	 -0.625
 19.492	  0.025	 -0.610
 19.496	  0.020	 -0.615
 19.500	  0.030	 -0.615
 19.504	  0.015	 -0.600
 19.508	  0.010	 -0.620
 19.512	  0.020	 -0.620
 19.516	  0.005	 -0.580
 19.520	  0.020	 -0.575
 19.524	  0.010	 -0.570
 19.528	  0.020	 -0.580
 19.532	  0.000	 -0.555
 19.536	  0.000	 -0.535
 19.540	  0.000	 -0.510
 19.544	 -0.015	 -0.510
 19.548	  0.005	 -0.475
 19.552	 -0.020	 -0.460
 19.556	 -0.010	 -0.435
 19.560	 -0.035	 -0.425
 19.564	 -0.020	 -0.425
 19.568	 -0.040	 -0.415
 19.572	 -0.040	 -0.385
 19.576	 -0.050	 -0.400
 19.580	 -0.040	 -0.395
 19.584	 -0.045	 -0.400
 19.588	 -0.040	 -0.390
 19.592	 -0.025	 -0.385
 19.596	 -0.030	 -0.395
 19.600	 -0.030	 -0.380
 19.604	 -0.015	 -0.390
 19.608	 -0.020	 -0.370
 19.612	 -0.010	 -0.385
 19.616	 -0.015	 -0.390
 19.620	 -0.020	 -0.395
 19.624	 -0.035	 -0.410
 19.628	 -0.010	 -0.410
 19.632	 -0.020	 -0.405
 19.636	 -0.010	 -0.395
 19.640	 -0.010	 -0.400
 19.644	 -0.010	 -0.410
 19.648	  0.005	 -0.410
 19.652	  0.005	 -0.415
 19.656	 -0.020	 -0.395
 19.660	  0.000	 -0.400
 19.664	  0.000	 -0.400
 19.668	  0.005	 -0.400
 19.672	  0.030	 -0.410
 19.676	  0.000	 -0.410
 19.680	  0.005	 -0.405
 19.684	  0.010	 -0.420
 19.688	  0.015	 -0.400
 19.692	  0.010	 -0.410
 19.696	  0.005	 -0.405
 19.700	  0.000	 -0.410
 19.704	  0.020	 -0.420
 19.708	  0.010	 -0.400
 19.712	  0.000	 -0.410
 19.716	  0.000	 -0.410
 19.720	  0.010	 -0.395
 19.724	  0.010	 -0.415
 19.728	  0.000	 -0.405
 19.732	  0.005	 -0.410
 19.736	  0.020	 -0.420
 19.740	  0.005	 -0.425
 19.744	  0.010	 -0.415
 19.748	  0.015	 -0.410
 19.752	  0.030	 -0.420
 19.756	  0.020	 -0.400
 19.760	  0.010	 -0.410
 19.764	  0.000	 -0.400
 19.768	  0.015	 -0.405
 19.772	  0.010	 -0.405
 19.776	  0.015	 -0.420
 19.780	  0.015	 -0.390
 19.784	 -0.020	 -0.405
 19.788	  0.000	 -0.425
 19.792	 -0.010	 -0.400
 19.796	  0.000	 -0.400
 19.800	  0.010	 -0.400
 19.804	  0.015	 -0.380
 19.808	  0.015	 -0.400
 19.812	  0.000	 -0.380
 19.816	  0.010	 -0.395
 19.820	  0.010	 -0.400
 19.824	  0.000	 -0.375
 19.828	  0.000	 -0.390
 19.832	  0.005	 -0.400
 19.836	  0.005	 -0.400
 19.840	  0.035	 -0.400
 19.844	  0.020	 -0.415
 19.848	  0.020	 -0.410
 19.852	  0.015	 -0.390
 19.856	  0.020	 -0.400
 19.860	  0.000	 -0.400
 19.864	  0.005	 -0.400
 19.868	  0.010	 -0.405
 19.872	  0.015	 -0.420
 19.876	  0.020	 -0.390
 19.880	  0.025	 -0.400
 19.884	  0.020	 -0.420
 19.888	  0.020	 -0.400
 19.892	  0.010	 -0.370
 19.896	  0.010	 -0.350
 19.900	 -0.005	 -0.335
 19.904	  0.000	 -0.285
 19.908	  0.020	 -0.255
 19.912	  0.020	 -0.245
 19.916	  0.040	 -0.250
 19.920	  0.065	 -0.225
 19.924	  0.065	 -0.220
 19.928	  0.110	 -0.215
 19.932	  0.110	 -0.225
 19.936	  0.110	 -0.250
 19.940	  0.120	 -0.255
 19.944	  0.125	 -0.235
 19.948	  0.120	 -0.235
 19.952	  0.090	 -0.235
 19.956	  0.085	 -0.250
 19.960	  0.060	 -0.280
 19.964	  0.030	 -0.340
 19.968	  0.010	 -0.370
 19.972	 -0.035	 -0.370
 19.976	 -0.025	 -0.355
 19.980	 -0.035	 -0.350
 19.984	 -0.050	 -0.340
 19.988	 -0.065	 -0.335
